1.31851	
1.35132	
1.38306	
1.41357	
1.44165	
1.4679	
1.49246	
1.51398	
1.5332	
1.55014	
1.56372	
1.57379	
1.58112	
1.58478	
1.58447	
1.58051	
1.57272	
1.56067	
1.54419	
1.52359	
1.49918	
1.47018	
1.43646	
1.39908	
1.35727	
1.31165	
1.26144	
1.20804	
1.15112	
1.09085	
1.02753	
0.961151	
0.892944	
0.822296	
0.750275	
0.676727	
0.602417	
0.527649	
0.452118	
0.376892	
0.302429	
0.228882	
0.156708	
0.0860596	
0.0177002	
-0.0485229	
-0.112305	
-0.17334	
-0.231018	
-0.285034	
-0.335999	
-0.383453	
-0.426483	
-0.465393	
-0.500946	
-0.531769	
-0.558777	
-0.58136	
-0.599823	
-0.615234	
-0.626221	
-0.633698	
-0.63797	
-0.638733	
-0.635986	
-0.630646	
-0.622864	
-0.612488	
-0.59967	
-0.584717	
-0.56839	
-0.550232	
-0.530701	
-0.510254	
-0.488739	
-0.466919	
-0.444183	
-0.421295	
-0.398712	
-0.375824	
-0.353394	
-0.330811	
-0.309906	
-0.288849	
-0.26886	
-0.249634	
-0.231781	
-0.215302	
-0.19928	
-0.184937	
-0.171509	
-0.15976	
-0.148926	
-0.139008	
-0.13092	
-0.123444	
-0.117035	
-0.111847	
-0.107269	
-0.103455	
-0.100708	
-0.0984192	
-0.0970459	
-0.096283	
-0.0956726	
-0.0952148	
-0.09552	
-0.0964355	
-0.0973511	
-0.0984192	
-0.0993347	
-0.100555	
-0.101471	
-0.102386	
-0.103607	
-0.104218	
-0.104828	
-0.10498	
-0.105133	
-0.104828	
-0.104828	
-0.10437	
-0.104065	
-0.103149	
-0.102081	
-0.100861	
-0.0997925	
-0.0985718	
-0.0968933	
-0.09552	
-0.0938416	
-0.0926208	
-0.0914001	
-0.0897217	
-0.0889587	
-0.0875854	
-0.0871277	
-0.0865173	
-0.0862122	
-0.085907	
-0.0863647	
-0.0868225	
-0.0872803	
-0.0878906	
-0.0895691	
-0.0907898	
-0.0918579	
-0.0938416	
-0.0959778	
-0.0978088	
-0.0999451	
-0.102539	
-0.104675	
-0.10788	
-0.110779	
-0.113373	
-0.116882	
-0.119476	
-0.122681	
-0.125122	
-0.128174	
-0.131226	
-0.133362	
-0.136261	
-0.139008	
-0.141449	
-0.143585	
-0.145874	
-0.147705	
-0.149384	
-0.151062	
-0.152435	
-0.153656	
-0.154877	
-0.155487	
-0.156555	
-0.157166	
-0.157623	
-0.158234	
-0.158844	
-0.159149	
-0.159302	
-0.15976	
-0.159912	
-0.160522	
-0.160828	
-0.160828	
-0.16098	
-0.161743	
-0.161896	
-0.162354	
-0.162201	
-0.162354	
-0.162659	
-0.162354	
-0.162354	
-0.162201	
-0.161896	
-0.161438	
-0.160828	
-0.15976	
-0.158844	
-0.157623	
-0.155945	
-0.154572	
-0.152283	
-0.150604	
-0.14801	
-0.145416	
-0.141907	
-0.139313	
-0.135956	
-0.132599	
-0.128937	
-0.124969	
-0.121002	
-0.117035	
-0.112152	
-0.10788	
-0.103149	
-0.0984192	
-0.0938416	
-0.088501	
-0.0836182	
-0.0787354	
-0.0733948	
-0.0683594	
-0.0634766	
-0.0582886	
-0.0537109	
-0.0488281	
-0.0434875	
-0.0392151	
-0.0349426	
-0.0305176	
-0.0268555	
-0.0233459	
-0.019989	
-0.0167847	
-0.0141907	
-0.0117493	
-0.00946045	
-0.00823975	
-0.00701904	
-0.0062561	
-0.00564575	
-0.00488281	
-0.00549316	
-0.00640869	
-0.00686646	
-0.00793457	
-0.00915527	
-0.0109863	
-0.0131226	
-0.0151062	
-0.0178528	
-0.019989	
-0.0227356	
-0.0250244	
-0.027771	
-0.0306702	
-0.0331116	
-0.0354004	
-0.038147	
-0.0405884	
-0.0430298	
-0.045166	
-0.0471497	
-0.0492859	
-0.0509644	
-0.0527954	
-0.0546265	
-0.0556946	
-0.0572205	
-0.0582886	
-0.0587463	
-0.0592041	
-0.0593567	
-0.0593567	
-0.0587463	
-0.0582886	
-0.0572205	
-0.055542	
-0.0540161	
-0.0524902	
-0.0500488	
-0.0476074	
-0.0447083	
-0.0411987	
-0.0384521	
-0.0340271	
-0.030365	
-0.0259399	
-0.0215149	
-0.0164795	
-0.0114441	
-0.00595093	
-0.000762939	
0.00457764	
0.0102234	
0.0161743	
0.0221252	
0.0282288	
0.0341797	
0.0401306	
0.045929	
0.0520325	
0.0578308	
0.0642395	
0.0708008	
0.0767517	
0.0830078	
0.0888062	
0.0950623	
0.101013	
0.106354	
0.111847	
0.117188	
0.121613	
0.126495	
0.131073	
0.135193	
0.138855	
0.142365	
0.145111	
0.14801	
0.150146	
0.151978	
0.153961	
0.155029	
0.156097	
0.15625	
0.156403	
0.156708	
0.155945	
0.155792	
0.154572	
0.153503	
0.15213	
0.151062	
0.149689	
0.148621	
0.146637	
0.145416	
0.144196	
0.142822	
0.142059	
0.141144	
0.140381	
0.139618	
0.139313	
0.139313	
0.139313	
0.139465	
0.140228	
0.140991	
0.142365	
0.143738	
0.145721	
0.14801	
0.150146	
0.153046	
0.156555	
0.159912	
0.163574	
0.167236	
0.171814	
0.175934	
0.180206	
0.185242	
0.190582	
0.195313	
0.200958	
0.206604	
0.211792	
0.217285	
0.222931	
0.228882	
0.234222	
0.239868	
0.245667	
0.250702	
0.25589	
0.261383	
0.266113	
0.271149	
0.275726	
0.280304	
0.284424	
0.288696	
0.292358	
0.295868	
0.299072	
0.302124	
0.305023	
0.30777	
0.309753	
0.312195	
0.313873	
0.315247	
0.31601	
0.317535	
0.318146	
0.318604	
0.318298	
0.318604	
0.318298	
0.317688	
0.316772	
0.31601	
0.314484	
0.31311	
0.311584	
0.309601	
0.307617	
0.305634	
0.303497	
0.301208	
0.298462	
0.296783	
0.293732	
0.290833	
0.288391	
0.286102	
0.283203	
0.280762	
0.278168	
0.275421	
0.272522	
0.270233	
0.267487	
0.26474	
0.262299	
0.259705	
0.256805	
0.253906	
0.25116	
0.24826	
0.245361	
0.242462	
0.239563	
0.236359	
0.233765	
0.231018	
0.227814	
0.224762	
0.221252	
0.218201	
0.214996	
0.21225	
0.20813	
0.20462	
0.201111	
0.197601	
0.193329	
0.189362	
0.185394	
0.18158	
0.17746	
0.172882	
0.168762	
0.164337	
0.15976	
0.155334	
0.150909	
0.146637	
0.141602	
0.137024	
0.132751	
0.128021	
0.123444	
0.119324	
0.114441	
0.110016	
0.105438	
0.100708	
0.0964355	
0.0912476	
0.0871277	
0.0820923	
0.0770569	
0.0724792	
0.0671387	
0.0622559	
0.057373	
0.0523376	
0.0471497	
0.0419617	
0.037384	
0.0325012	
0.0273132	
0.0224304	
0.0172424	
0.0126648	
0.00823975	
0.00366211	
-0.000610352	
-0.0050354	
-0.00946045	
-0.0134277	
-0.0177002	
-0.0213623	
-0.0248718	
-0.0285339	
-0.0318909	
-0.0349426	
-0.0379944	
-0.0404358	
-0.0430298	
-0.0456238	
-0.0479126	
-0.0498962	
-0.0518799	
-0.0532532	
-0.0549316	
-0.0564575	
-0.0575256	
-0.0592041	
-0.0598145	
-0.0608826	
-0.0608826	
-0.0616455	
-0.0619507	
-0.062561	
-0.062561	
-0.0622559	
-0.0627136	
-0.062561	
-0.0631714	
-0.062561	
-0.0624084	
-0.0622559	
-0.0627136	
-0.0627136	
-0.062561	
-0.0631714	
-0.0636292	
-0.0637817	
-0.0645447	
-0.0656128	
-0.0662231	
-0.0669861	
-0.067749	
-0.0691223	
-0.070343	
-0.0712585	
-0.072937	
-0.0743103	
-0.0758362	
-0.0769043	
-0.0787354	
-0.0798035	
-0.0811768	
-0.08255	
-0.0837708	
-0.085144	
-0.0863647	
-0.0871277	
-0.0883484	
-0.0892639	
-0.0895691	
-0.0906372	
-0.0915527	
-0.0920105	
-0.0920105	
-0.0923157	
-0.0924683	
-0.0921631	
-0.0918579	
-0.0918579	
-0.0914001	
-0.090332	
-0.0897217	
-0.0886536	
-0.087738	
-0.0865173	
-0.0854492	
-0.0837708	
-0.0827026	
-0.0805664	
-0.0791931	
-0.0769043	
-0.0750732	
-0.0730896	
-0.0712585	
-0.0689697	
-0.0666809	
-0.0648499	
-0.0624084	
-0.0605774	
-0.0585938	
-0.0566101	
-0.0546265	
-0.0527954	
-0.0509644	
-0.0489807	
-0.0476074	
-0.0460815	
-0.0447083	
-0.043335	
-0.0419617	
-0.040741	
-0.0401306	
-0.0395203	
-0.0387573	
-0.0382996	
-0.0382996	
-0.0379944	
-0.0384521	
-0.0382996	
-0.0389099	
-0.0396729	
-0.0402832	
-0.0408936	
-0.0419617	
-0.0431824	
-0.0444031	
-0.045929	
-0.0471497	
-0.0491333	
-0.0506592	
-0.052948	
-0.0550842	
-0.0569153	
-0.0593567	
-0.0610352	
-0.0636292	
-0.0657654	
-0.0680542	
-0.0704956	
-0.0721741	
-0.0744629	
-0.0762939	
-0.0778198	
-0.0790405	
-0.0805664	
-0.0816345	
-0.0823975	
-0.0834656	
-0.0837708	
-0.0837708	
-0.0837708	
-0.0834656	
-0.0827026	
-0.0817871	
-0.0804138	
-0.0793457	
-0.0772095	
-0.0752258	
-0.0733948	
-0.071106	
-0.068512	
-0.065918	
-0.063324	
-0.0604248	
-0.0576782	
-0.0549316	
-0.0518799	
-0.0486755	
-0.0457764	
-0.0430298	
-0.0402832	
-0.0372314	
-0.0344849	
-0.0315857	
-0.0289917	
-0.0268555	
-0.0241089	
-0.0222778	
-0.0205994	
-0.0192261	
-0.0175476	
-0.0163269	
-0.015564	
-0.0146484	
-0.0141907	
-0.0138855	
-0.0132751	
-0.0135803	
-0.0137329	
-0.0137329	
-0.0149536	
-0.0151062	
-0.0160217	
-0.0172424	
-0.0178528	
-0.0189209	
-0.0201416	
-0.0212097	
-0.0227356	
-0.0241089	
-0.0256348	
-0.0270081	
-0.0283813	
-0.0302124	
-0.0315857	
-0.0332642	
-0.03479	
-0.0361633	
-0.0379944	
-0.0392151	
-0.0415039	
-0.0430298	
-0.0448608	
-0.0466919	
-0.0485229	
-0.0505066	
-0.0523376	
-0.0541687	
-0.0559998	
-0.058136	
-0.0598145	
-0.0616455	
-0.063324	
-0.065155	
-0.065918	
-0.067749	
-0.0688171	
-0.0697327	
-0.0708008	
-0.0721741	
-0.0724792	
-0.0730896	
-0.0732422	
-0.0735474	
-0.0740051	
-0.0738525	
-0.0735474	
-0.0727844	
-0.0724792	
-0.0712585	
-0.0701904	
-0.0688171	
-0.0669861	
-0.0653076	
-0.0631714	
-0.0605774	
-0.0579834	
-0.055542	
-0.0523376	
-0.0495911	
-0.0463867	
-0.0428772	
-0.0398254	
-0.0363159	
-0.0331116	
-0.0296021	
-0.0262451	
-0.022583	
-0.0193787	
-0.0160217	
-0.01297	
-0.00976563	
-0.00732422	
-0.00427246	
-0.0012207	
0.00137329	
0.00442505	
0.00732422	
0.0100708	
0.0125122	
0.0154114	
0.0178528	
0.020752	
0.0230408	
0.0259399	
0.0285339	
0.0314331	
0.0341797	
0.0367737	
0.0401306	
0.0421143	
0.045166	
0.0480652	
0.0512695	
0.0544739	
0.057373	
0.06073	
0.065155	
0.0683594	
0.0721741	
0.0759888	
0.0802612	
0.0837708	
0.0880432	
0.0924683	
0.0967407	
0.101013	
0.105743	
0.110168	
0.114594	
0.119171	
0.123444	
0.127716	
0.131989	
0.136566	
0.140533	
0.144196	
0.148468	
0.151978	
0.155792	
0.159149	
0.162201	
0.164795	
0.167847	
0.170441	
0.172577	
0.174103	
0.175934	
0.17746	
0.178528	
0.179443	
0.179901	
0.180054	
0.179901	
0.179901	
0.179291	
0.17868	
0.177765	
0.17746	
0.175781	
0.174103	
0.172882	
0.171509	
0.16983	
0.168304	
0.166931	
0.164795	
0.163269	
0.161743	
0.159607	
0.158234	
0.156097	
0.154266	
0.15274	
0.151367	
0.149384	
0.148163	
0.146637	
0.145416	
0.144501	
0.143433	
0.142822	
0.142517	
0.142212	
0.141907	
0.142212	
0.142365	
0.142517	
0.142822	
0.143433	
0.144043	
0.144653	
0.145416	
0.145721	
0.146637	
0.147247	
0.148315	
0.148468	
0.149078	
0.149231	
0.149689	
0.149384	
0.149689	
0.149384	
0.148621	
0.148163	
0.147095	
0.145874	
0.144196	
0.142517	
0.140381	
0.137939	
0.135498	
0.132599	
0.129547	
0.125732	
0.12207	
0.118103	
0.113525	
0.108795	
0.103912	
0.0987244	
0.0932312	
0.0872803	
0.0813293	
0.0750732	
0.0686646	
0.0622559	
0.0553894	
0.0491333	
0.0422668	
0.0357056	
0.0289917	
0.0222778	
0.0160217	
0.00976563	
0.00366211	
-0.00228882	
-0.00808716	
-0.0132751	
-0.0184631	
-0.0233459	
-0.027771	
-0.032196	
-0.0358582	
-0.0395203	
-0.0428772	
-0.0457764	
-0.0486755	
-0.0515747	
-0.0538635	
-0.0558472	
-0.0578308	
-0.0598145	
-0.0614929	
-0.0634766	
-0.0648499	
-0.0662231	
-0.0680542	
-0.0692749	
-0.0704956	
-0.0718689	
-0.072937	
-0.0749207	
-0.0762939	
-0.0778198	
-0.0796509	
-0.0817871	
-0.0839233	
-0.0862122	
-0.0891113	
-0.0917053	
-0.0946045	
-0.098114	
-0.101318	
-0.105133	
-0.108337	
-0.112305	
-0.116577	
-0.120697	
-0.124817	
-0.128479	
-0.132599	
-0.136414	
-0.140991	
-0.144653	
-0.148315	
-0.15213	
-0.155487	
-0.158386	
-0.161591	
-0.164337	
-0.166321	
-0.168762	
-0.170441	
-0.171204	
-0.172424	
-0.172577	
-0.172577	
-0.172272	
-0.171051	
-0.16983	
-0.168304	
-0.166168	
-0.163879	
-0.16098	
-0.157928	
-0.154877	
-0.150757	
-0.147247	
-0.142975	
-0.138702	
-0.134125	
-0.130005	
-0.124969	
-0.120087	
-0.115509	
-0.110779	
-0.106506	
-0.101929	
-0.0979614	
-0.0938416	
-0.0897217	
-0.0865173	
-0.0831604	
-0.0801086	
-0.0775146	
-0.0750732	
-0.0732422	
-0.0718689	
-0.0708008	
-0.0700378	
-0.0698853	
-0.0701904	
-0.0709534	
-0.0718689	
-0.0732422	
-0.0749207	
-0.0775146	
-0.0799561	
-0.083313	
-0.0863647	
-0.0895691	
-0.093689	
-0.0973511	
-0.101624	
-0.105743	
-0.109711	
-0.113983	
-0.118561	
-0.123138	
-0.126648	
-0.130768	
-0.134583	
-0.138092	
-0.141754	
-0.144348	
-0.147247	
-0.149994	
-0.151672	
-0.153809	
-0.155029	
-0.156555	
-0.157166	
-0.157928	
-0.158691	
-0.158539	
-0.157928	
-0.157776	
-0.157318	
-0.15625	
-0.154724	
-0.153809	
-0.152588	
-0.151062	
-0.149536	
-0.147858	
-0.146484	
-0.144806	
-0.143585	
-0.142365	
-0.140991	
-0.140076	
-0.139313	
-0.138855	
-0.138855	
-0.138702	
-0.138855	
-0.139465	
-0.140076	
-0.141602	
-0.14267	
-0.144806	
-0.146484	
-0.149078	
-0.150757	
-0.153503	
-0.156555	
-0.15976	
-0.162659	
-0.165253	
-0.168915	
-0.171509	
-0.174561	
-0.177307	
-0.179749	
-0.182495	
-0.184021	
-0.185394	
-0.18631	
-0.187531	
-0.187378	
-0.187225	
-0.186157	
-0.184479	
-0.182495	
-0.179596	
-0.176239	
-0.171814	
-0.166779	
-0.160828	
-0.154114	
-0.14679	
-0.138397	
-0.128937	
-0.118866	
-0.107422	
-0.0961304	
-0.0836182	
-0.0698853	
-0.0556946	
-0.0405884	
-0.0245667	
-0.00808716	
0.00976563	
0.0280762	
0.0462341	
0.065918	
0.0857544	
0.107117	
0.128479	
0.150757	
0.173492	
0.196686	
0.220795	
0.245514	
0.270233	
0.295868	
0.321808	
0.348816	
0.375671	
0.403442	
0.431519	
0.460052	
0.488892	
0.518799	
0.548401	
0.579376	
0.610657	
0.6427	
0.674896	
0.708771	
0.742798	
0.77713	
0.812988	
0.849304	
0.885925	
0.923004	
0.960541	
0.99823	
1.03577	
1.0733	
1.10947	
1.14624	
1.18134	
1.21597	
1.24863	
1.28006	
1.30951	
1.33682	
1.36215	
1.38519	
1.40533	
1.42273	
1.43631	
1.44684	
1.45325	
1.4566	
1.45538	
1.45035	
1.44073	
1.4267	
1.40839	
1.38535	
1.35788	
1.32614	
1.28937	
1.24817	
1.20285	
1.15341	
1.09985	
1.04263	
0.982056	
0.918427	
0.852203	
0.782928	
0.711975	
0.639648	
0.565186	
0.490723	
0.415344	
0.339661	
0.26413	
0.189667	
0.116119	
0.0439453	
-0.0260925	
-0.0946045	
-0.160217	
-0.223389	
-0.283508	
-0.340576	
-0.393524	
-0.442963	
-0.488739	
-0.529938	
-0.56778	
-0.600891	
-0.630341	
-0.655365	
-0.676117	
-0.693207	
-0.706329	
-0.715942	
-0.721283	
-0.723724	
-0.722809	
-0.719147	
-0.71167	
-0.702362	
-0.690308	
-0.675964	
-0.660095	
-0.642548	
-0.623474	
-0.602722	
-0.581818	
-0.559998	
-0.53772	
-0.514679	
-0.491638	
-0.468903	
-0.44632	
-0.424194	
-0.402069	
-0.380859	
-0.360413	
-0.341339	
-0.322266	
-0.304718	
-0.288544	
-0.272675	
-0.258484	
-0.245667	
-0.23407	
-0.223083	
-0.213776	
-0.205688	
-0.198822	
-0.193176	
-0.187836	
-0.184479	
-0.181885	
-0.179901	
-0.179138	
-0.17868	
-0.178986	
-0.180206	
-0.182037	
-0.184021	
-0.186615	
-0.189362	
-0.192413	
-0.195923	
-0.19928	
-0.203094	
-0.206909	
-0.210724	
-0.214539	
-0.218353	
-0.22171	
-0.225067	
-0.228729	
-0.232239	
-0.235291	
-0.238037	
-0.240326	
-0.243225	
-0.245514	
-0.247803	
-0.249939	
-0.25177	
-0.253296	
-0.254974	
-0.256042	
-0.258026	
-0.258484	
-0.259552	
-0.260162	
-0.26062	
-0.26123	
-0.261536	
-0.261383	
-0.26123	
-0.26123	
-0.26062	
-0.260162	
-0.259399	
-0.258484	
-0.257721	
-0.256348	
-0.255585	
-0.253906	
-0.252533	
-0.250702	
-0.249176	
-0.247498	
-0.245361	
-0.243225	
-0.241394	
-0.239258	
-0.236816	
-0.234375	
-0.231781	
-0.229034	
-0.226288	
-0.223541	
-0.22049	
-0.217896	
-0.214844	
-0.21225	
-0.209045	
-0.206299	
-0.2034	
-0.200806	
-0.198212	
-0.195618	
-0.192719	
-0.190277	
-0.188141	
-0.185852	
-0.183411	
-0.181274	
-0.179291	
-0.177155	
-0.175171	
-0.172577	
-0.170746	
-0.168457	
-0.167084	
-0.1651	
-0.162964	
-0.161285	
-0.159912	
-0.158081	
-0.157013	
-0.155792	
-0.154724	
-0.153961	
-0.153046	
-0.152435	
-0.151672	
-0.151367	
-0.151215	
-0.150757	
-0.150604	
-0.150604	
-0.150604	
-0.150757	
-0.150604	
-0.15152	
-0.151672	
-0.152435	
-0.153351	
-0.154266	
-0.155334	
-0.156403	
-0.157928	
-0.159607	
-0.161285	
-0.162659	
-0.164642	
-0.166779	
-0.168457	
-0.170135	
-0.172424	
-0.174103	
-0.175629	
-0.177002	
-0.178528	
-0.179749	
-0.180664	
-0.181427	
-0.1828	
-0.183105	
-0.183868	
-0.184021	
-0.183411	
-0.183105	
-0.182953	
-0.181427	
-0.180969	
-0.179138	
-0.177307	
-0.175018	
-0.172577	
-0.169983	
-0.166626	
-0.163422	
-0.159454	
-0.156097	
-0.152588	
-0.14801	
-0.144501	
-0.139923	
-0.134888	
-0.130615	
-0.126038	
-0.121307	
-0.11673	
-0.111694	
-0.107727	
-0.103455	
-0.0987244	
-0.0942993	
-0.0906372	
-0.0871277	
-0.0836182	
-0.0802612	
-0.0772095	
-0.0747681	
-0.0721741	
-0.0706482	
-0.0682068	
-0.0671387	
-0.065918	
-0.0650024	
-0.0645447	
-0.0642395	
-0.0639343	
-0.0640869	
-0.0648499	
-0.0657654	
-0.0668335	
-0.0679016	
-0.0694275	
-0.0714111	
-0.0730896	
-0.0746155	
-0.0769043	
-0.0788879	
-0.0813293	
-0.0830078	
-0.0849915	
-0.0865173	
-0.0881958	
-0.0900269	
-0.0907898	
-0.0920105	
-0.0930786	
-0.0933838	
-0.0935364	
-0.0935364	
-0.0930786	
-0.0923157	
-0.091095	
-0.0897217	
-0.087738	
-0.0852966	
-0.0827026	
-0.0799561	
-0.0762939	
-0.0727844	
-0.0686646	
-0.0643921	
-0.0596619	
-0.0547791	
-0.0497437	
-0.0437927	
-0.0382996	
-0.032196	
-0.0263977	
-0.0201416	
-0.0138855	
-0.00732422	
-0.000610352	
0.00595093	
0.0128174	
0.0195313	
0.0259399	
0.0326538	
0.0395203	
0.045929	
0.0523376	
0.0590515	
0.0653076	
0.0717163	
0.0779724	
0.0839233	
0.0892639	
0.09552	
0.101166	
0.106506	
0.112	
0.117035	
0.12207	
0.127563	
0.131989	
0.136871	
0.141144	
0.145721	
0.149841	
0.154266	
0.158081	
0.161285	
0.164795	
0.167847	
0.171204	
0.17395	
0.176239	
0.178528	
0.180817	
0.182648	
0.184174	
0.185547	
0.186157	
0.18692	
0.187073	
0.187073	
0.187073	
0.186462	
0.185852	
0.185089	
0.184326	
0.183258	
0.181732	
0.180817	
0.179749	
0.178223	
0.176544	
0.175018	
0.173187	
0.171967	
0.170898	
0.16922	
0.167999	
0.167389	
0.166168	
0.165558	
0.165253	
0.164948	
0.1651	
0.16571	
0.166626	
0.167694	
0.168762	
0.170441	
0.172272	
0.174866	
0.17746	
0.180054	
0.182953	
0.186615	
0.189819	
0.193024	
0.197296	
0.200958	
0.205078	
0.209198	
0.213013	
0.21759	
0.2211	
0.225067	
0.228882	
0.232544	
0.235443	
0.238342	
0.240631	
0.24292	
0.244598	
0.245972	
0.246735	
0.24765	
0.24765	
0.247345	
0.246735	
0.244751	
0.24292	
0.240784	
0.237732	
0.234528	
0.230865	
0.22644	
0.221558	
0.216827	
0.211182	
0.205231	
0.198822	
0.191956	
0.185242	
0.178528	
0.171051	
0.163727	
0.156555	
0.149231	
0.141144	
0.133972	
0.12558	
0.118256	
0.110474	
0.102844	
0.0953674	
0.0874329	
0.0802612	
0.0732422	
0.065918	
0.0592041	
0.0520325	
0.045929	
0.039978	
0.0335693	
0.0276184	
0.0224304	
0.0169373	
0.0112915	
0.00610352	
0.00137329	
-0.00274658	
-0.00747681	
-0.012207	
-0.0160217	
-0.0202942	
-0.0241089	
-0.0282288	
-0.0320435	
-0.0357056	
-0.0392151	
-0.0428772	
-0.0463867	
-0.0500488	
-0.0526428	
-0.0558472	
-0.0593567	
-0.0616455	
-0.0648499	
-0.0668335	
-0.0689697	
-0.071106	
-0.0727844	
-0.0746155	
-0.0759888	
-0.0770569	
-0.0779724	
-0.0793457	
-0.0801086	
-0.0810242	
-0.0816345	
-0.0820923	
-0.08255	
-0.0827026	
-0.083313	
-0.0836182	
-0.0834656	
-0.0839233	
-0.0846863	
-0.0846863	
-0.0856018	
-0.085907	
-0.0869751	
-0.087738	
-0.0889587	
-0.0906372	
-0.0924683	
-0.0947571	
-0.0971985	
-0.100098	
-0.103607	
-0.106812	
-0.111237	
-0.115204	
-0.120239	
-0.124817	
-0.13031	
-0.135956	
-0.141296	
-0.147095	
-0.153503	
-0.159302	
-0.165558	
-0.171967	
-0.177765	
-0.184326	
-0.190887	
-0.197144	
-0.203094	
-0.209351	
-0.214996	
-0.220642	
-0.22583	
-0.230865	
-0.235291	
-0.239105	
-0.242767	
-0.246429	
-0.249023	
-0.251007	
-0.253143	
-0.254517	
-0.255127	
-0.256042	
-0.256653	
-0.2565	
-0.256042	
-0.255585	
-0.254669	
-0.254059	
-0.252533	
-0.251617	
-0.250244	
-0.248413	
-0.24704	
-0.245514	
-0.243835	
-0.24231	
-0.240784	
-0.239563	
-0.238342	
-0.236664	
-0.236053	
-0.235291	
-0.234375	
-0.23407	
-0.233154	
-0.233154	
-0.233307	
-0.233459	
-0.233002	
-0.233612	
-0.234222	
-0.234375	
-0.234375	
-0.234985	
-0.235443	
-0.235443	
-0.235901	
-0.235901	
-0.235748	
-0.236359	
-0.236053	
-0.235443	
-0.235291	
-0.23468	
-0.234222	
-0.233002	
-0.231934	
-0.23056	
-0.229034	
-0.227661	
-0.22583	
-0.224457	
-0.222626	
-0.220337	
-0.218506	
-0.216522	
-0.214844	
-0.213318	
-0.211182	
-0.209503	
-0.206909	
-0.205078	
-0.203247	
-0.201416	
-0.199432	
-0.197754	
-0.195313	
-0.193634	
-0.191498	
-0.189972	
-0.187836	
-0.18631	
-0.184174	
-0.183258	
-0.181885	
-0.180359	
-0.179749	
-0.178528	
-0.177765	
-0.177002	
-0.176544	
-0.175781	
-0.175323	
-0.174713	
-0.174255	
-0.174103	
-0.173492	
-0.173645	
-0.173492	
-0.173645	
-0.174103	
-0.174103	
-0.174866	
-0.175323	
-0.175781	
-0.176849	
-0.17746	
-0.178986	
-0.180359	
-0.181885	
-0.183411	
-0.185394	
-0.187378	
-0.189819	
-0.19165	
-0.193939	
-0.196381	
-0.198822	
-0.200653	
-0.203247	
-0.205078	
-0.20752	
-0.209961	
-0.211792	
-0.21347	
-0.215454	
-0.217285	
-0.218658	
-0.220184	
-0.2211	
-0.222473	
-0.223083	
-0.223541	
-0.223846	
-0.223389	
-0.222778	
-0.22171	
-0.220337	
-0.219116	
-0.21698	
-0.214844	
-0.212555	
-0.209503	
-0.206451	
-0.203247	
-0.19928	
-0.196075	
-0.191956	
-0.188446	
-0.184631	
-0.181274	
-0.17746	
-0.174103	
-0.170746	
-0.167999	
-0.164642	
-0.161896	
-0.159454	
-0.157013	
-0.155487	
-0.153503	
-0.152283	
-0.151062	
-0.150909	
-0.150452	
-0.150452	
-0.150757	
-0.151978	
-0.153046	
-0.154724	
-0.156097	
-0.158691	
-0.161133	
-0.163879	
-0.166626	
-0.16983	
-0.172577	
-0.176544	
-0.178833	
-0.182343	
-0.185089	
-0.187988	
-0.191193	
-0.193787	
-0.196686	
-0.19928	
-0.201721	
-0.203857	
-0.205841	
-0.207825	
-0.209198	
-0.210266	
-0.211334	
-0.211945	
-0.21225	
-0.212097	
-0.212097	
-0.211792	
-0.210724	
-0.209961	
-0.20874	
-0.206909	
-0.205231	
-0.2034	
-0.201263	
-0.199432	
-0.196533	
-0.194397	
-0.192108	
-0.189362	
-0.186768	
-0.184174	
-0.181885	
-0.178986	
-0.176392	
-0.174255	
-0.171509	
-0.169525	
-0.167084	
-0.164795	
-0.162964	
-0.161133	
-0.158997	
-0.15686	
-0.154724	
-0.152893	
-0.150757	
-0.148926	
-0.147247	
-0.145264	
-0.142975	
-0.141602	
-0.13916	
-0.137787	
-0.135498	
-0.13382	
-0.131989	
-0.130615	
-0.128632	
-0.126953	
-0.125275	
-0.122986	
-0.121002	
-0.118866	
-0.116272	
-0.113831	
-0.111847	
-0.109253	
-0.106354	
-0.10376	
-0.100861	
-0.0979614	
-0.0947571	
-0.0918579	
-0.0891113	
-0.0857544	
-0.0827026	
-0.0794983	
-0.0762939	
-0.0735474	
-0.070343	
-0.0672913	
-0.0642395	
-0.0610352	
-0.0582886	
-0.0553894	
-0.0524902	
-0.0494385	
-0.0466919	
-0.0440979	
-0.0415039	
-0.0390625	
-0.0363159	
-0.0341797	
-0.0320435	
-0.0297546	
-0.0280762	
-0.0257874	
-0.0244141	
-0.0222778	
-0.020752	
-0.0195313	
-0.0180054	
-0.0164795	
-0.0158691	
-0.0144958	
-0.0135803	
-0.01297	
-0.0123596	
-0.0114441	
-0.0109863	
-0.0108337	
-0.0106812	
-0.0111389	
-0.0111389	
-0.0117493	
-0.0120544	
-0.0131226	
-0.0137329	
-0.0144958	
-0.0157166	
-0.0163269	
-0.0172424	
-0.0183105	
-0.0193787	
-0.0204468	
-0.0216675	
-0.0227356	
-0.0236511	
-0.0248718	
-0.0260925	
-0.0268555	
-0.0276184	
-0.0282288	
-0.0291443	
-0.0289917	
-0.0299072	
-0.0300598	
-0.0306702	
-0.0300598	
-0.030365	
-0.030365	
-0.030365	
-0.0297546	
-0.0291443	
-0.0289917	
-0.0288391	
-0.0274658	
-0.0268555	
-0.0260925	
-0.025177	
-0.0233459	
-0.0224304	
-0.0213623	
-0.0201416	
-0.0189209	
-0.0180054	
-0.0169373	
-0.0158691	
-0.0154114	
-0.0144958	
-0.0143433	
-0.0141907	
-0.0137329	
-0.0143433	
-0.0151062	
-0.0154114	
-0.0163269	
-0.0175476	
-0.0190735	
-0.020752	
-0.0228882	
-0.0253296	
-0.027771	
-0.0308228	
-0.0335693	
-0.0372314	
-0.0410461	
-0.0448608	
-0.0486755	
-0.0531006	
-0.0572205	
-0.0614929	
-0.0665283	
-0.0712585	
-0.0756836	
-0.0805664	
-0.0856018	
-0.0900269	
-0.0946045	
-0.0991821	
-0.103607	
-0.107422	
-0.111389	
-0.115204	
-0.118713	
-0.121918	
-0.124817	
-0.127563	
-0.130005	
-0.132294	
-0.133972	
-0.135651	
-0.137177	
-0.137939	
-0.13916	
-0.139313	
-0.140076	
-0.140228	
-0.140839	
-0.141296	
-0.141449	
-0.141754	
-0.141907	
-0.142212	
-0.14267	
-0.143433	
-0.144348	
-0.144958	
-0.146332	
-0.147552	
-0.148773	
-0.150604	
-0.152588	
-0.154877	
-0.157318	
-0.159912	
-0.162506	
-0.166016	
-0.169525	
-0.173035	
-0.176849	
-0.181274	
-0.185394	
-0.189819	
-0.194702	
-0.199432	
-0.204163	
-0.209351	
-0.214081	
-0.218811	
-0.223541	
-0.228271	
-0.232849	
-0.236969	
-0.241241	
-0.245667	
-0.249176	
-0.252075	
-0.255127	
-0.257568	
-0.259552	
-0.261383	
-0.262756	
-0.263672	
-0.263824	
-0.26413	
-0.263062	
-0.262146	
-0.260925	
-0.259247	
-0.257416	
-0.254974	
-0.252228	
-0.249023	
-0.246277	
-0.242767	
-0.239563	
-0.235596	
-0.231934	
-0.228271	
-0.225067	
-0.221252	
-0.218048	
-0.214081	
-0.210876	
-0.207977	
-0.20462	
-0.202026	
-0.199585	
-0.196838	
-0.19455	
-0.192871	
-0.190887	
-0.189819	
-0.188446	
-0.187378	
-0.187225	
-0.187073	
-0.187378	
-0.187836	
-0.188599	
-0.189667	
-0.191498	
-0.193024	
-0.195007	
-0.197296	
-0.200043	
-0.202026	
-0.205078	
-0.20813	
-0.210876	
-0.213928	
-0.216675	
-0.219879	
-0.222473	
-0.225067	
-0.227203	
-0.230255	
-0.232086	
-0.233765	
-0.235443	
-0.236511	
-0.237732	
-0.238342	
-0.239258	
-0.23941	
-0.239563	
-0.239105	
-0.23819	
-0.237274	
-0.236359	
-0.234833	
-0.232544	
-0.230865	
-0.228271	
-0.226288	
-0.223083	
-0.219879	
-0.216522	
-0.213318	
-0.209961	
-0.206451	
-0.202637	
-0.199127	
-0.195007	
-0.191345	
-0.188141	
-0.184174	
-0.180359	
-0.17746	
-0.174408	
-0.171661	
-0.16861	
-0.166626	
-0.164948	
-0.163116	
-0.162048	
-0.161133	
-0.160675	
-0.160675	
-0.16098	
-0.162048	
-0.163116	
-0.165253	
-0.167389	
-0.170135	
-0.173187	
-0.177002	
-0.180817	
-0.185089	
-0.189362	
-0.195007	
-0.200195	
-0.205536	
-0.211639	
-0.216675	
-0.222626	
-0.228577	
-0.234375	
-0.240326	
-0.245667	
-0.251007	
-0.256348	
-0.26123	
-0.265503	
-0.269623	
-0.272827	
-0.275574	
-0.27771	
-0.278931	
-0.279999	
-0.279236	
-0.278778	
-0.276489	
-0.274506	
-0.270844	
-0.266266	
-0.260773	
-0.254517	
-0.247192	
-0.239105	
-0.230255	
-0.220184	
-0.20874	
-0.196991	
-0.184326	
-0.170593	
-0.155945	
-0.140839	
-0.124664	
-0.107422	
-0.0897217	
-0.071106	
-0.0517273	
-0.0315857	
-0.0109863	
0.0106812	
0.0332642	
0.0559998	
0.0796509	
0.104218	
0.1297	
0.155792	
0.182343	
0.209656	
0.237274	
0.265808	
0.294495	
0.323944	
0.353851	
0.384216	
0.415192	
0.44693	
0.478973	
0.511932	
0.545654	
0.579224	
0.614624	
0.65033	
0.686188	
0.722961	
0.76004	
0.797272	
0.834656	
0.872498	
0.910034	
0.947266	
0.983887	
1.0202	
1.05545	
1.09009	
1.1232	
1.1554	
1.18591	
1.21414	
1.24069	
1.26526	
1.28693	
1.30569	
1.32248	
1.3356	
1.34506	
1.35254	
1.35544	
1.35498	
1.35071	
1.34247	
1.33057	
1.31424	
1.29364	
1.26892	
1.24039	
1.20712	
1.16974	
1.12823	
1.08261	
1.03363	
0.980377	
0.924225	
0.864563	
0.802155	
0.737305	
0.670471	
0.601349	
0.531158	
0.45929	
0.386963	
0.313873	
0.241089	
0.168457	
0.096283	
0.0259399	
-0.0436401	
-0.112152	
-0.178223	
-0.241699	
-0.303345	
-0.361633	
-0.417175	
-0.468903	
-0.517883	
-0.563202	
-0.603943	
-0.641785	
-0.675049	
-0.704651	
-0.72998	
-0.751495	
-0.768738	
-0.782471	
-0.792389	
-0.79834	
-0.800629	
-0.800171	
-0.796356	
-0.789032	
-0.779419	
-0.767212	
-0.752869	
-0.736389	
-0.718079	
-0.698547	
-0.677643	
-0.655365	
-0.632172	
-0.608673	
-0.584717	
-0.56015	
-0.536041	
-0.511322	
-0.486908	
-0.462952	
-0.439453	
-0.416565	
-0.394592	
-0.373077	
-0.352783	
-0.333405	
-0.315094	
-0.298157	
-0.281677	
-0.266876	
-0.252838	
-0.240631	
-0.228882	
-0.219269	
-0.209961	
-0.201721	
-0.195007	
-0.189056	
-0.184937	
-0.180511	
-0.177612	
-0.175323	
-0.173798	
-0.173187	
-0.173187	
-0.17334	
-0.174408	
-0.175781	
-0.177612	
-0.180054	
-0.182495	
-0.184631	
-0.187988	
-0.191193	
-0.19455	
-0.198364	
-0.201721	
-0.204926	
-0.207977	
-0.211639	
-0.214386	
-0.21759	
-0.22049	
-0.222931	
-0.225372	
-0.227661	
-0.229492	
-0.231018	
-0.232544	
-0.233612	
-0.23407	
-0.234222	
-0.234375	
-0.234222	
-0.233307	
-0.231934	
-0.231171	
-0.22995	
-0.227814	
-0.225983	
-0.224152	
-0.221863	
-0.219727	
-0.217438	
-0.214844	
-0.212402	
-0.210266	
-0.207977	
-0.205688	
-0.2034	
-0.201416	
-0.199585	
-0.197601	
-0.196228	
-0.194244	
-0.192871	
-0.19165	
-0.19043	
-0.189209	
-0.188293	
-0.187225	
-0.187073	
-0.18631	
-0.186005	
-0.185547	
-0.185547	
-0.185852	
-0.185394	
-0.185852	
-0.186462	
-0.186462	
-0.186768	
-0.186768	
-0.187225	
-0.187073	
-0.18692	
-0.18631	
-0.185852	
-0.185089	
-0.184479	
-0.183411	
-0.181885	
-0.181122	
-0.179138	
-0.177612	
-0.175781	
-0.173798	
-0.171814	
-0.16922	
-0.167389	
-0.165253	
-0.162811	
-0.16098	
-0.158539	
-0.156555	
-0.154572	
-0.152588	
-0.150452	
-0.148621	
-0.146942	
-0.145416	
-0.143738	
-0.142517	
-0.141144	
-0.140076	
-0.139008	
-0.137787	
-0.136871	
-0.136414	
-0.135345	
-0.135345	
-0.134583	
-0.133972	
-0.134125	
-0.13382	
-0.133514	
-0.133362	
-0.132904	
-0.132904	
-0.132904	
-0.132294	
-0.132446	
-0.131836	
-0.131226	
-0.130463	
-0.130005	
-0.128937	
-0.128326	
-0.126953	
-0.125885	
-0.124817	
-0.123749	
-0.121918	
-0.120697	
-0.119476	
-0.117798	
-0.116425	
-0.115204	
-0.11322	
-0.111847	
-0.110779	
-0.108795	
-0.10788	
-0.106049	
-0.104828	
-0.103455	
-0.102234	
-0.100861	
-0.0994873	
-0.0985718	
-0.0970459	
-0.096283	
-0.0950623	
-0.0935364	
-0.0926208	
-0.0915527	
-0.0906372	
-0.0897217	
-0.0891113	
-0.0875854	
-0.0875854	
-0.0862122	
-0.0854492	
-0.0846863	
-0.0834656	
-0.0827026	
-0.0814819	
-0.0804138	
-0.0791931	
-0.0778198	
-0.0770569	
-0.0756836	
-0.0746155	
-0.0732422	
-0.0720215	
-0.0706482	
-0.0691223	
-0.0680542	
-0.0662231	
-0.0645447	
-0.0628662	
-0.0610352	
-0.0590515	
-0.0572205	
-0.0550842	
-0.052948	
-0.0498962	
-0.04776	
-0.0453186	
-0.0419617	
-0.0389099	
-0.0358582	
-0.0325012	
-0.0294495	
-0.0259399	
-0.0227356	
-0.0186157	
-0.0151062	
-0.0112915	
-0.00732422	
-0.00274658	
0.000915527	
0.00518799	
0.00930786	
0.0134277	
0.0183105	
0.022583	
0.0268555	
0.0311279	
0.0357056	
0.039978	
0.0445557	
0.0491333	
0.0532532	
0.0578308	
0.0621033	
0.0665283	
0.0712585	
0.0752258	
0.0794983	
0.0840759	
0.087738	
0.0918579	
0.0959778	
0.0997925	
0.103607	
0.106964	
0.110321	
0.113983	
0.11734	
0.120239	
0.123138	
0.126343	
0.129089	
0.131226	
0.133667	
0.136414	
0.139465	
0.141296	
0.143738	
0.146332	
0.148468	
0.150757	
0.152893	
0.155334	
0.157166	
0.159149	
0.161438	
0.163727	
0.166016	
0.167847	
0.169678	
0.171814	
0.173798	
0.175476	
0.177307	
0.178833	
0.180054	
0.18219	
0.183716	
0.185394	
0.187073	
0.188751	
0.190125	
0.192261	
0.194244	
0.196075	
0.198212	
0.19989	
0.201721	
0.203705	
0.206451	
0.20813	
0.209808	
0.21286	
0.214844	
0.217133	
0.218964	
0.2211	
0.223999	
0.226288	
0.228729	
0.231323	
0.233459	
0.236053	
0.23819	
0.240479	
0.242767	
0.244904	
0.246887	
0.248871	
0.250549	
0.252686	
0.253906	
0.255432	
0.256653	
0.257874	
0.258942	
0.26001	
0.260468	
0.261383	
0.261688	
0.261993	
0.262146	
0.261993	
0.262146	
0.261993	
0.261383	
0.260925	
0.260315	
0.259705	
0.258331	
0.257263	
0.256042	
0.254364	
0.252686	
0.251007	
0.249023	
0.246887	
0.244446	
0.24231	
0.240021	
0.237579	
0.235138	
0.232544	
0.230103	
0.227661	
0.224762	
0.222473	
0.220184	
0.21759	
0.215607	
0.213013	
0.211182	
0.20874	
0.206909	
0.204773	
0.202637	
0.200806	
0.198669	
0.196686	
0.194702	
0.193024	
0.191193	
0.189209	
0.187531	
0.185852	
0.184174	
0.18219	
0.180359	
0.178528	
0.176544	
0.174561	
0.172119	
0.170593	
0.168762	
0.166168	
0.163727	
0.161743	
0.158844	
0.156097	
0.15274	
0.149536	
0.146179	
0.14267	
0.138397	
0.134277	
0.1297	
0.125122	
0.120239	
0.115204	
0.110168	
0.104523	
0.0987244	
0.0923157	
0.0865173	
0.0801086	
0.0737	
0.0671387	
0.0604248	
0.0531006	
0.0463867	
0.0396729	
0.0320435	
0.0247192	
0.0175476	
0.00991821	
0.00259399	
-0.00457764	
-0.0119019	
-0.0190735	
-0.0268555	
-0.0340271	
-0.0405884	
-0.0473022	
-0.0540161	
-0.059967	
-0.0662231	
-0.0720215	
-0.0773621	
-0.0828552	
-0.0874329	
-0.0924683	
-0.0971985	
-0.101166	
-0.105591	
-0.108948	
-0.112762	
-0.116272	
-0.118866	
-0.121765	
-0.123749	
-0.12619	
-0.128021	
-0.1297	
-0.130768	
-0.131836	
-0.132294	
-0.132904	
-0.133362	
-0.133362	
-0.133514	
-0.133209	
-0.132904	
-0.132294	
-0.131989	
-0.131378	
-0.130463	
-0.130157	
-0.128937	
-0.128021	
-0.127411	
-0.126343	
-0.12558	
-0.124969	
-0.124359	
-0.124054	
-0.123138	
-0.122681	
-0.122375	
-0.121918	
-0.122375	
-0.122223	
-0.122223	
-0.122986	
-0.123138	
-0.123444	
-0.124054	
-0.125122	
-0.125732	
-0.127106	
-0.128174	
-0.129242	
-0.13092	
-0.132294	
-0.133972	
-0.135803	
-0.137482	
-0.139008	
-0.140686	
-0.142517	
-0.144348	
-0.146027	
-0.147858	
-0.149384	
-0.150452	
-0.151672	
-0.15274	
-0.153809	
-0.154572	
-0.155029	
-0.155334	
-0.155334	
-0.155334	
-0.155029	
-0.154266	
-0.153961	
-0.152283	
-0.15152	
-0.150299	
-0.148773	
-0.146484	
-0.144501	
-0.142517	
-0.140076	
-0.137634	
-0.134735	
-0.132446	
-0.129395	
-0.126953	
-0.123749	
-0.120697	
-0.118103	
-0.114594	
-0.111847	
-0.108795	
-0.105591	
-0.102539	
-0.0997925	
-0.0971985	
-0.0949097	
-0.0923157	
-0.0904846	
-0.0889587	
-0.0874329	
-0.085907	
-0.0848389	
-0.0840759	
-0.0834656	
-0.0831604	
-0.083313	
-0.0837708	
-0.0837708	
-0.0843811	
-0.0852966	
-0.0860596	
-0.0872803	
-0.0883484	
-0.0895691	
-0.0907898	
-0.0924683	
-0.093689	
-0.0950623	
-0.0965881	
-0.0979614	
-0.0990295	
-0.10025	
-0.101471	
-0.102692	
-0.10376	
-0.10437	
-0.105438	
-0.105896	
-0.106354	
-0.106964	
-0.107269	
-0.107422	
-0.107422	
-0.107422	
-0.107269	
-0.107269	
-0.106812	
-0.106506	
-0.105896	
-0.106201	
-0.105591	
-0.105286	
-0.105286	
-0.10498	
-0.104523	
-0.104218	
-0.104065	
-0.104218	
-0.104218	
-0.104523	
-0.104218	
-0.104218	
-0.104675	
-0.105133	
-0.105438	
-0.106201	
-0.106659	
-0.107422	
-0.108032	
-0.108948	
-0.109406	
-0.110168	
-0.110779	
-0.111389	
-0.111847	
-0.11261	
-0.112915	
-0.113678	
-0.113678	
-0.113983	
-0.113831	
-0.113678	
-0.113831	
-0.11322	
-0.112915	
-0.11261	
-0.111847	
-0.111389	
-0.110474	
-0.110016	
-0.1091	
-0.108185	
-0.107269	
-0.105896	
-0.104523	
-0.103149	
-0.101624	
-0.10025	
-0.0982666	
-0.0964355	
-0.0950623	
-0.0932312	
-0.0917053	
-0.0900269	
-0.0880432	
-0.0866699	
-0.0848389	
-0.0830078	
-0.0813293	
-0.0794983	
-0.0778198	
-0.0765991	
-0.0746155	
-0.072937	
-0.0715637	
-0.070343	
-0.0691223	
-0.0679016	
-0.0665283	
-0.0653076	
-0.0642395	
-0.0628662	
-0.0621033	
-0.0610352	
-0.0605774	
-0.0596619	
-0.0592041	
-0.0585938	
-0.058136	
-0.0576782	
-0.057373	
-0.0572205	
-0.0567627	
-0.0566101	
-0.0564575	
-0.0559998	
-0.0558472	
-0.0556946	
-0.0552368	
-0.0547791	
-0.0544739	
-0.0538635	
-0.0531006	
-0.0524902	
-0.0514221	
-0.0505066	
-0.0497437	
-0.0485229	
-0.0474548	
-0.045929	
-0.0450134	
-0.043335	
-0.0421143	
-0.0405884	
-0.0393677	
-0.0379944	
-0.0363159	
-0.0346375	
-0.0334167	
-0.0320435	
-0.030365	
-0.0288391	
-0.0274658	
-0.0263977	
-0.0250244	
-0.0238037	
-0.0230408	
-0.0218201	
-0.0213623	
-0.0210571	
-0.0209045	
-0.0204468	
-0.0204468	
-0.0210571	
-0.0216675	
-0.0224304	
-0.0231934	
-0.0242615	
-0.0254822	
-0.0270081	
-0.0285339	
-0.0297546	
-0.0314331	
-0.0331116	
-0.0352478	
-0.0366211	
-0.038147	
-0.0398254	
-0.040741	
-0.0418091	
-0.0431824	
-0.0442505	
-0.0447083	
-0.045929	
-0.0457764	
-0.0463867	
-0.0465393	
-0.0463867	
-0.045929	
-0.0456238	
-0.0448608	
-0.0437927	
-0.042572	
-0.0413513	
-0.0393677	
-0.037384	
-0.0344849	
-0.0325012	
-0.0297546	
-0.0265503	
-0.0234985	
-0.0198364	
-0.0166321	
-0.0128174	
-0.00930786	
-0.00549316	
-0.00213623	
0.00167847	
0.00518799	
0.00900269	
0.012207	
0.015564	
0.0184631	
0.0216675	
0.0250244	
0.0279236	
0.0308228	
0.0341797	
0.0367737	
0.0398254	
0.0421143	
0.0445557	
0.0471497	
0.0495911	
0.0520325	
0.0541687	
0.0561523	
0.0585938	
0.0602722	
0.0621033	
0.0634766	
0.0653076	
0.0666809	
0.0683594	
0.0695801	
0.0706482	
0.0721741	
0.0732422	
0.0749207	
0.0759888	
0.0772095	
0.0782776	
0.0791931	
0.0805664	
0.0820923	
0.0834656	
0.0840759	
0.0854492	
0.0862122	
0.0874329	
0.0886536	
0.0904846	
0.0912476	
0.0923157	
0.0938416	
0.0952148	
0.0964355	
0.0979614	
0.0996399	
0.101013	
0.101929	
0.103302	
0.104828	
0.105896	
0.107727	
0.10849	
0.109558	
0.110474	
0.111237	
0.112	
0.112762	
0.113373	
0.113831	
0.114746	
0.114746	
0.115356	
0.115204	
0.115204	
0.115051	
0.114899	
0.114746	
0.114136	
0.113373	
0.11261	
0.111847	
0.110474	
0.108948	
0.107574	
0.106049	
0.104218	
0.102539	
0.10025	
0.098114	
0.0958252	
0.0933838	
0.0906372	
0.0880432	
0.0856018	
0.0823975	
0.0794983	
0.0764465	
0.0732422	
0.0695801	
0.0665283	
0.0631714	
0.0598145	
0.0563049	
0.052948	
0.0494385	
0.045929	
0.043335	
0.0401306	
0.0370789	
0.0334167	
0.0308228	
0.027771	
0.0250244	
0.0224304	
0.0198364	
0.0167847	
0.0151062	
0.0126648	
0.0100708	
0.00839233	
0.00656128	
0.00427246	
0.00259399	
0.000610352	
-0.0012207	
-0.00274658	
-0.00442505	
-0.0062561	
-0.00823975	
-0.00991821	
-0.0115967	
-0.0138855	
-0.015564	
-0.017395	
-0.0192261	
-0.0221252	
-0.0244141	
-0.0270081	
-0.0297546	
-0.0323486	
-0.0354004	
-0.0384521	
-0.0419617	
-0.0450134	
-0.0491333	
-0.0526428	
-0.0566101	
-0.0608826	
-0.065155	
-0.0695801	
-0.0740051	
-0.0788879	
-0.0834656	
-0.0878906	
-0.0924683	
-0.0971985	
-0.101624	
-0.106049	
-0.110474	
-0.114594	
-0.118561	
-0.122528	
-0.12619	
-0.129547	
-0.133057	
-0.135803	
-0.138702	
-0.141144	
-0.144196	
-0.145874	
-0.147705	
-0.148926	
-0.150299	
-0.150757	
-0.151367	
-0.151367	
-0.151062	
-0.150452	
-0.149841	
-0.148468	
-0.147247	
-0.145111	
-0.142975	
-0.140381	
-0.138245	
-0.135803	
-0.132904	
-0.13031	
-0.127563	
-0.124512	
-0.12146	
-0.118408	
-0.115509	
-0.112457	
-0.109558	
-0.106812	
-0.10376	
-0.101166	
-0.0990295	
-0.0964355	
-0.0938416	
-0.0917053	
-0.0897217	
-0.0880432	
-0.0863647	
-0.0848389	
-0.0836182	
-0.0822449	
-0.0814819	
-0.080719	
-0.0799561	
-0.0790405	
-0.0791931	
-0.0785828	
-0.0785828	
-0.0782776	
-0.0784302	
-0.078125	
-0.0784302	
-0.0785828	
-0.0785828	
-0.0788879	
-0.0791931	
-0.0790405	
-0.0801086	
-0.0802612	
-0.080719	
-0.0814819	
-0.0822449	
-0.08255	
-0.0837708	
-0.0848389	
-0.0860596	
-0.0869751	
-0.0883484	
-0.0898743	
-0.0914001	
-0.092926	
-0.0946045	
-0.096283	
-0.0979614	
-0.10025	
-0.102081	
-0.104065	
-0.106964	
-0.109406	
-0.111847	
-0.114746	
-0.118103	
-0.12085	
-0.123901	
-0.127411	
-0.131073	
-0.134277	
-0.137939	
-0.141296	
-0.144806	
-0.148468	
-0.151978	
-0.155334	
-0.158539	
-0.161743	
-0.164948	
-0.167999	
-0.171204	
-0.173645	
-0.175781	
-0.178375	
-0.180817	
-0.182495	
-0.184326	
-0.185699	
-0.187073	
-0.188141	
-0.189056	
-0.189667	
-0.190277	
-0.190582	
-0.19104	
-0.190887	
-0.190887	
-0.190735	
-0.190125	
-0.189209	
-0.188599	
-0.187683	
-0.186615	
-0.185089	
-0.183868	
-0.182343	
-0.180054	
-0.177765	
-0.174561	
-0.171814	
-0.168304	
-0.164948	
-0.160522	
-0.15625	
-0.151062	
-0.146027	
-0.139923	
-0.133514	
-0.125885	
-0.118561	
-0.110474	
-0.101929	
-0.0920105	
-0.0820923	
-0.0714111	
-0.0596619	
-0.0479126	
-0.0344849	
-0.020752	
-0.00610352	
0.00930786	
0.0254822	
0.0419617	
0.0595093	
0.0778198	
0.0968933	
0.11673	
0.136871	
0.158081	
0.179443	
0.202179	
0.225525	
0.249176	
0.273438	
0.298615	
0.323639	
0.350037	
0.376434	
0.403137	
0.431061	
0.458374	
0.487366	
0.516052	
0.545654	
0.575256	
0.605011	
0.635986	
0.667419	
0.699005	
0.731354	
0.764618	
0.798187	
0.83252	
0.867157	
0.902252	
0.938263	
0.974426	
1.01105	
1.04797	
1.08414	
1.11984	
1.15616	
1.19141	
1.22559	
1.25854	
1.28998	
1.32019	
1.34842	
1.37497	
1.39877	
1.42059	
1.43921	
1.45508	
1.46835	
1.47736	
1.4827	
1.48499	
1.48331	
1.47675	
1.46637	
1.45218	
1.43326	
1.40945	
1.38184	
1.34964	
1.31287	
1.27197	
1.22681	
1.17798	
1.12473	
1.06827	
1.0083	
0.944824	
0.879364	
0.810852	
0.740204	
0.668488	
0.594788	
0.520477	
0.445709	
0.370789	
0.295868	
0.22171	
0.148468	
0.0770569	
0.00747681	
-0.059967	
-0.125122	
-0.187073	
-0.245819	
-0.301514	
-0.353241	
-0.401611	
-0.445862	
-0.485229	
-0.521393	
-0.552673	
-0.579681	
-0.601959	
-0.621033	
-0.635071	
-0.646057	
-0.652771	
-0.656281	
-0.655823	
-0.652771	
-0.646515	
-0.637054	
-0.625458	
-0.611572	
-0.595245	
-0.578156	
-0.558472	
-0.53772	
-0.516052	
-0.493774	
-0.470581	
-0.447693	
-0.424194	
-0.401154	
-0.378113	
-0.355988	
-0.334167	
-0.313873	
-0.293884	
-0.275726	
-0.258026	
-0.241699	
-0.227051	
-0.213318	
-0.201416	
-0.190735	
-0.181274	
-0.17334	
-0.166473	
-0.160675	
-0.156708	
-0.153503	
-0.151672	
-0.150757	
-0.150604	
-0.151672	
-0.153198	
-0.155487	
-0.158234	
-0.161438	
-0.1651	
-0.168457	
-0.172272	
-0.176086	
-0.179749	
-0.183868	
-0.187225	
-0.190887	
-0.193787	
-0.196381	
-0.198517	
-0.200806	
-0.202332	
-0.2034	
-0.203857	
-0.203857	
-0.204163	
-0.203247	
-0.202026	
-0.200195	
-0.198517	
-0.196228	
-0.193481	
-0.190887	
-0.187836	
-0.184937	
-0.181732	
-0.17868	
-0.175323	
-0.172424	
-0.168915	
-0.166016	
-0.163116	
-0.160675	
-0.157928	
-0.156097	
-0.154419	
-0.152588	
-0.151367	
-0.150452	
-0.149841	
-0.149689	
-0.149689	
-0.150146	
-0.150604	
-0.151978	
-0.153046	
-0.155029	
-0.156708	
-0.159149	
-0.161285	
-0.164032	
-0.166321	
-0.168762	
-0.171967	
-0.174561	
-0.177155	
-0.179443	
-0.182037	
-0.184021	
-0.186005	
-0.187683	
-0.189514	
-0.19043	
-0.191345	
-0.192108	
-0.192108	
-0.192261	
-0.19165	
-0.190887	
-0.189514	
-0.188446	
-0.186462	
-0.184479	
-0.181885	
-0.179138	
-0.175629	
-0.172272	
-0.168304	
-0.16449	
-0.16037	
-0.155945	
-0.15152	
-0.146942	
-0.142365	
-0.137634	
-0.132904	
-0.128021	
-0.123749	
-0.119019	
-0.114288	
-0.110321	
-0.106049	
-0.102081	
-0.0982666	
-0.0946045	
-0.0909424	
-0.0880432	
-0.0848389	
-0.0820923	
-0.0798035	
-0.0776672	
-0.0761414	
-0.0747681	
-0.0733948	
-0.0727844	
-0.0721741	
-0.0714111	
-0.0712585	
-0.0712585	
-0.071106	
-0.0708008	
-0.0712585	
-0.0717163	
-0.0717163	
-0.0721741	
-0.0727844	
-0.0733948	
-0.0737	
-0.0741577	
-0.0746155	
-0.0752258	
-0.075531	
-0.0762939	
-0.0767517	
-0.0772095	
-0.0773621	
-0.0775146	
-0.0778198	
-0.0782776	
-0.0782776	
-0.0785828	
-0.0784302	
-0.078125	
-0.0776672	
-0.0773621	
-0.0772095	
-0.0769043	
-0.0767517	
-0.0761414	
-0.0759888	
-0.0756836	
-0.0756836	
-0.0756836	
-0.0756836	
-0.0752258	
-0.075531	
-0.0756836	
-0.0758362	
-0.0762939	
-0.0767517	
-0.0767517	
-0.0772095	
-0.0776672	
-0.0779724	
-0.0785828	
-0.0788879	
-0.0794983	
-0.0802612	
-0.0805664	
-0.0811768	
-0.0819397	
-0.0816345	
-0.0822449	
-0.08255	
-0.0823975	
-0.0823975	
-0.0823975	
-0.0819397	
-0.0811768	
-0.0805664	
-0.0796509	
-0.0784302	
-0.0772095	
-0.0752258	
-0.0735474	
-0.071106	
-0.068512	
-0.0662231	
-0.0631714	
-0.0598145	
-0.0567627	
-0.0527954	
-0.0491333	
-0.0450134	
-0.0405884	
-0.0363159	
-0.032196	
-0.0274658	
-0.0230408	
-0.0186157	
-0.0132751	
-0.00854492	
-0.00366211	
0.00152588	
0.00656128	
0.0115967	
0.0166321	
0.0219727	
0.0270081	
0.032196	
0.037384	
0.0415039	
0.0466919	
0.0517273	
0.0561523	
0.0604248	
0.0648499	
0.0689697	
0.0730896	
0.0770569	
0.0810242	
0.0845337	
0.0880432	
0.0917053	
0.0953674	
0.0984192	
0.101471	
0.104675	
0.107269	
0.110321	
0.113068	
0.115356	
0.11795	
0.120239	
0.122375	
0.124664	
0.126648	
0.128937	
0.13092	
0.132904	
0.135498	
0.137939	
0.140228	
0.142365	
0.144958	
0.147247	
0.149994	
0.152588	
0.155487	
0.158539	
0.160828	
0.164185	
0.167389	
0.170288	
0.173798	
0.177002	
0.179901	
0.183563	
0.18692	
0.19043	
0.193787	
0.197449	
0.200958	
0.204315	
0.207672	
0.211487	
0.214844	
0.217896	
0.22171	
0.22522	
0.228882	
0.232086	
0.235291	
0.2388	
0.242157	
0.245667	
0.248871	
0.252075	
0.25528	
0.257874	
0.26062	
0.263672	
0.266418	
0.269165	
0.272217	
0.274658	
0.27771	
0.280609	
0.283051	
0.286102	
0.289001	
0.291901	
0.2948	
0.298004	
0.301208	
0.304108	
0.307617	
0.310669	
0.313873	
0.316772	
0.319672	
0.322418	
0.325623	
0.328369	
0.330963	
0.333405	
0.335693	
0.338135	
0.340424	
0.342407	
0.344238	
0.345917	
0.348053	
0.350037	
0.351105	
0.352783	
0.354004	
0.354919	
0.355377	
0.355988	
0.35675	
0.356598	
0.355988	
0.354919	
0.354462	
0.353241	
0.351257	
0.349274	
0.346527	
0.343933	
0.340729	
0.337067	
0.332794	
0.328522	
0.323944	
0.318756	
0.313721	
0.308685	
0.302582	
0.296631	
0.290222	
0.283356	
0.276794	
0.269775	
0.262451	
0.25528	
0.247955	
0.240326	
0.232697	
0.224915	
0.217438	
0.209656	
0.202026	
0.19455	
0.187225	
0.179749	
0.172424	
0.165405	
0.158997	
0.151825	
0.145874	
0.139618	
0.134125	
0.128479	
0.123596	
0.118713	
0.114746	
0.110931	
0.107574	
0.104218	
0.101624	
0.0987244	
0.0970459	
0.0947571	
0.0932312	
0.0915527	
0.0909424	
0.0898743	
0.0892639	
0.0886536	
0.0880432	
0.0874329	
0.0866699	
0.0862122	
0.0854492	
0.0849915	
0.0843811	
0.083313	
0.0820923	
0.080719	
0.0793457	
0.0773621	
0.075531	
0.0733948	
0.0706482	
0.0680542	
0.065155	
0.0622559	
0.0585938	
0.0549316	
0.0509644	
0.0468445	
0.0427246	
0.0384521	
0.0338745	
0.0289917	
0.0238037	
0.0180054	
0.0132751	
0.00808716	
0.00244141	
-0.00320435	
-0.00839233	
-0.0141907	
-0.0193787	
-0.0248718	
-0.0300598	
-0.0352478	
-0.0405884	
-0.0454712	
-0.0502014	
-0.0550842	
-0.0592041	
-0.0637817	
-0.0674438	
-0.071106	
-0.0746155	
-0.0775146	
-0.0802612	
-0.0836182	
-0.085907	
-0.0883484	
-0.0901794	
-0.0920105	
-0.0933838	
-0.0946045	
-0.0961304	
-0.0968933	
-0.0979614	
-0.0984192	
-0.098877	
-0.0993347	
-0.0993347	
-0.0994873	
-0.0999451	
-0.0991821	
-0.0993347	
-0.0993347	
-0.0991821	
-0.0994873	
-0.0991821	
-0.098877	
-0.098877	
-0.0990295	
-0.0985718	
-0.0984192	
-0.0984192	
-0.0982666	
-0.098114	
-0.0985718	
-0.0976563	
-0.0979614	
-0.0979614	
-0.098114	
-0.098114	
-0.098114	
-0.0985718	
-0.0987244	
-0.0991821	
-0.0993347	
-0.0997925	
-0.10025	
-0.100403	
-0.101166	
-0.101471	
-0.101776	
-0.102081	
-0.102386	
-0.102844	
-0.103455	
-0.103607	
-0.104065	
-0.104065	
-0.104523	
-0.104675	
-0.10498	
-0.105133	
-0.105438	
-0.106354	
-0.106201	
-0.106659	
-0.106812	
-0.107117	
-0.107422	
-0.107422	
-0.107422	
-0.108032	
-0.108185	
-0.108337	
-0.108643	
-0.108795	
-0.108948	
-0.108948	
-0.109253	
-0.109253	
-0.109711	
-0.109558	
-0.109711	
-0.109406	
-0.108948	
-0.1091	
-0.108337	
-0.108337	
-0.107574	
-0.107269	
-0.106354	
-0.105591	
-0.104675	
-0.104065	
-0.103302	
-0.102234	
-0.101318	
-0.100403	
-0.0993347	
-0.0982666	
-0.0973511	
-0.096283	
-0.09552	
-0.0942993	
-0.0933838	
-0.0924683	
-0.0915527	
-0.0909424	
-0.0897217	
-0.0891113	
-0.0883484	
-0.0874329	
-0.0868225	
-0.085907	
-0.0852966	
-0.0843811	
-0.0837708	
-0.0827026	
-0.0820923	
-0.0813293	
-0.0801086	
-0.0798035	
-0.0782776	
-0.0772095	
-0.0764465	
-0.0746155	
-0.0733948	
-0.0721741	
-0.071106	
-0.0697327	
-0.067749	
-0.0666809	
-0.0648499	
-0.0627136	
-0.0613403	
-0.0596619	
-0.0578308	
-0.0561523	
-0.0546265	
-0.0527954	
-0.0514221	
-0.0498962	
-0.0486755	
-0.0476074	
-0.0469971	
-0.0463867	
-0.0453186	
-0.0454712	
-0.0454712	
-0.0463867	
-0.0466919	
-0.0476074	
-0.0482178	
-0.0502014	
-0.0515747	
-0.0535583	
-0.0546265	
-0.0569153	
-0.0585938	
-0.0613403	
-0.063324	
-0.0654602	
-0.0680542	
-0.070343	
-0.0727844	
-0.0749207	
-0.0770569	
-0.0791931	
-0.0810242	
-0.0828552	
-0.0846863	
-0.0857544	
-0.0869751	
-0.0875854	
-0.088501	
-0.0891113	
-0.0889587	
-0.0881958	
-0.087738	
-0.0872803	
-0.085907	
-0.0845337	
-0.0831604	
-0.080719	
-0.0784302	
-0.0764465	
-0.0741577	
-0.0714111	
-0.0688171	
-0.065918	
-0.063324	
-0.06073	
-0.0584412	
-0.0561523	
-0.0537109	
-0.0517273	
-0.0502014	
-0.0491333	
-0.0473022	
-0.0465393	
-0.0457764	
-0.0450134	
-0.0453186	
-0.0453186	
-0.0456238	
-0.0462341	
-0.0471497	
-0.0482178	
-0.0495911	
-0.0511169	
-0.0526428	
-0.0543213	
-0.0564575	
-0.058136	
-0.0604248	
-0.062561	
-0.0645447	
-0.0665283	
-0.0683594	
-0.0700378	
-0.0723267	
-0.0737	
-0.0750732	
-0.0765991	
-0.0778198	
-0.0788879	
-0.0798035	
-0.0798035	
-0.0805664	
-0.080719	
-0.0804138	
-0.0802612	
-0.0796509	
-0.0790405	
-0.0778198	
-0.0767517	
-0.0747681	
-0.072937	
-0.071106	
-0.0692749	
-0.0663757	
-0.0640869	
-0.0614929	
-0.0582886	
-0.0553894	
-0.0524902	
-0.0494385	
-0.0462341	
-0.0430298	
-0.0396729	
-0.0364685	
-0.0331116	
-0.0297546	
-0.0262451	
-0.0230408	
-0.019989	
-0.0167847	
-0.0137329	
-0.0109863	
-0.00839233	
-0.00549316	
-0.00305176	
-0.000457764	
0.00167847	
0.00427246	
0.0062561	
0.00900269	
0.0111389	
0.0131226	
0.0152588	
0.0177002	
0.0196838	
0.0222778	
0.0241089	
0.0267029	
0.0291443	
0.0312805	
0.0337219	
0.0363159	
0.0392151	
0.0416565	
0.0444031	
0.0471497	
0.0498962	
0.0524902	
0.055542	
0.0584412	
0.0611877	
0.0642395	
0.0675964	
0.0701904	
0.0732422	
0.0761414	
0.0787354	
0.0811768	
0.0837708	
0.0862122	
0.0886536	
0.0904846	
0.0924683	
0.0944519	
0.0956726	
0.0976563	
0.098877	
0.0994873	
0.10025	
0.100861	
0.101013	
0.101166	
0.100403	
0.100403	
0.0993347	
0.0982666	
0.0968933	
0.09552	
0.093689	
0.0917053	
0.0894165	
0.0869751	
0.0846863	
0.08255	
0.0798035	
0.0772095	
0.0747681	
0.0721741	
0.0701904	
0.0679016	
0.0660706	
0.0643921	
0.063324	
0.0619507	
0.0610352	
0.06073	
0.0601196	
0.0602722	
0.0610352	
0.0621033	
0.0631714	
0.0642395	
0.065918	
0.0683594	
0.0700378	
0.0726318	
0.0752258	
0.0776672	
0.0808716	
0.0840759	
0.0871277	
0.0901794	
0.0933838	
0.0965881	
0.10025	
0.103455	
0.106354	
0.109406	
0.112457	
0.115051	
0.117493	
0.119324	
0.12207	
0.123749	
0.125275	
0.126495	
0.127258	
0.127716	
0.127716	
0.127258	
0.126495	
0.125275	
0.123749	
0.121613	
0.119171	
0.116272	
0.11322	
0.109863	
0.105591	
0.101471	
0.0965881	
0.0917053	
0.0866699	
0.0813293	
0.0753784	
0.0697327	
0.0642395	
0.0578308	
0.0518799	
0.0456238	
0.0396729	
0.0341797	
0.0282288	
0.0221252	
0.0161743	
0.0106812	
0.00442505	
-0.000915527	
-0.00640869	
-0.0117493	
-0.0169373	
-0.0222778	
-0.0273132	
-0.0320435	
-0.0366211	
-0.0408936	
-0.0453186	
-0.0492859	
-0.0526428	
-0.0564575	
-0.0595093	
-0.0627136	
-0.0656128	
-0.068512	
-0.071106	
-0.0733948	
-0.0758362	
-0.0778198	
-0.0801086	
-0.0820923	
-0.0845337	
-0.0863647	
-0.0883484	
-0.0904846	
-0.0921631	
-0.0942993	
-0.0961304	
-0.098114	
-0.0999451	
-0.101471	
-0.103455	
-0.105591	
-0.106964	
-0.108795	
-0.110779	
-0.11261	
-0.114288	
-0.115814	
-0.117645	
-0.119171	
-0.120697	
-0.122375	
-0.123138	
-0.124359	
-0.125122	
-0.125732	
-0.126038	
-0.126495	
-0.126801	
-0.126648	
-0.126495	
-0.125732	
-0.125732	
-0.124817	
-0.124054	
-0.123291	
-0.121613	
-0.12085	
-0.119476	
-0.118256	
-0.117035	
-0.115356	
-0.113831	
-0.111847	
-0.110321	
-0.108643	
-0.106964	
-0.105286	
-0.103302	
-0.101624	
-0.100098	
-0.0987244	
-0.0971985	
-0.0961304	
-0.0952148	
-0.0946045	
-0.0932312	
-0.0924683	
-0.0923157	
-0.0921631	
-0.0915527	
-0.0914001	
-0.0914001	
-0.0921631	
-0.0921631	
-0.0924683	
-0.0935364	
-0.0935364	
-0.0941467	
-0.0949097	
-0.0950623	
-0.0964355	
-0.0971985	
-0.098114	
-0.0990295	
-0.10025	
-0.101471	
-0.102539	
-0.103607	
-0.104675	
-0.105896	
-0.107422	
-0.108337	
-0.109863	
-0.110626	
-0.111237	
-0.11261	
-0.11322	
-0.113983	
-0.114899	
-0.115509	
-0.115967	
-0.115814	
-0.116272	
-0.116119	
-0.116272	
-0.116272	
-0.115662	
-0.115356	
-0.115051	
-0.114288	
-0.113831	
-0.11322	
-0.112762	
-0.111694	
-0.111542	
-0.110626	
-0.110321	
-0.109863	
-0.109253	
-0.108948	
-0.10849	
-0.10849	
-0.108032	
-0.108337	
-0.108185	
-0.108337	
-0.10849	
-0.10849	
-0.108643	
-0.108948	
-0.109558	
-0.109863	
-0.110321	
-0.110931	
-0.111389	
-0.112	
-0.113068	
-0.113983	
-0.114746	
-0.115662	
-0.117035	
-0.117645	
-0.118561	
-0.119324	
-0.120544	
-0.121613	
-0.122528	
-0.123291	
-0.124207	
-0.125275	
-0.125732	
-0.126953	
-0.127869	
-0.128937	
-0.1297	
-0.130615	
-0.131989	
-0.133057	
-0.134583	
-0.135803	
-0.137024	
-0.138092	
-0.139618	
-0.140991	
-0.142517	
-0.143585	
-0.144501	
-0.145569	
-0.14679	
-0.147552	
-0.148163	
-0.148926	
-0.148468	
-0.14801	
-0.147858	
-0.147095	
-0.145569	
-0.143738	
-0.140686	
-0.137787	
-0.13382	
-0.129089	
-0.123596	
-0.117035	
-0.110016	
-0.101624	
-0.0926208	
-0.0819397	
-0.071106	
-0.058136	
-0.0447083	
-0.030365	
-0.0143433	
0.00228882	
0.019989	
0.0390625	
0.0592041	
0.0804138	
0.102692	
0.126495	
0.151215	
0.177002	
0.204163	
0.232086	
0.26062	
0.29007	
0.32074	
0.35141	
0.383911	
0.416412	
0.449371	
0.483398	
0.517426	
0.552216	
0.587463	
0.623322	
0.660095	
0.696869	
0.733643	
0.772095	
0.810089	
0.849152	
0.888214	
0.927734	
0.966949	
1.00662	
1.04584	
1.08444	
1.12244	
1.15997	
1.19629	
1.23184	
1.26511	
1.297	
1.32736	
1.35513	
1.38077	
1.40427	
1.42471	
1.44241	
1.45676	
1.46866	
1.47598	
1.4801	
1.4801	
1.47629	
1.46835	
1.45615	
1.43967	
1.4183	
1.39328	
1.36307	
1.32919	
1.29105	
1.24817	
1.20132	
1.15082	
1.09634	
1.03836	
0.977325	
0.913391	
0.846863	
0.77774	
0.707092	
0.635071	
0.561523	
0.486908	
0.412292	
0.337524	
0.263367	
0.189514	
0.117493	
0.0462341	
-0.0227356	
-0.0891113	
-0.153198	
-0.214691	
-0.272827	
-0.327759	
-0.378876	
-0.426331	
-0.470276	
-0.509796	
-0.545349	
-0.576477	
-0.603485	
-0.626068	
-0.645142	
-0.660095	
-0.670929	
-0.678101	
-0.682068	
-0.682068	
-0.678406	
-0.672302	
-0.663147	
-0.651398	
-0.637512	
-0.62149	
-0.603333	
-0.583801	
-0.562897	
-0.540466	
-0.517273	
-0.493774	
-0.469666	
-0.445557	
-0.420837	
-0.396729	
-0.372925	
-0.349426	
-0.326691	
-0.304718	
-0.283661	
-0.263672	
-0.244751	
-0.226898	
-0.210419	
-0.19516	
-0.180969	
-0.168457	
-0.157166	
-0.147247	
-0.139008	
-0.131531	
-0.125732	
-0.120697	
-0.117035	
-0.114594	
-0.11322	
-0.113068	
-0.113373	
-0.114594	
-0.116882	
-0.119476	
-0.122528	
-0.126495	
-0.130615	
-0.135193	
-0.140076	
-0.144806	
-0.149536	
-0.154572	
-0.159454	
-0.164185	
-0.168457	
-0.172577	
-0.177155	
-0.180359	
-0.184021	
-0.187073	
-0.189362	
-0.19104	
-0.193176	
-0.194092	
-0.195007	
-0.19516	
-0.19577	
-0.195313	
-0.194397	
-0.193329	
-0.191956	
-0.190277	
-0.188599	
-0.186768	
-0.184479	
-0.182343	
-0.179749	
-0.177307	
-0.175018	
-0.172729	
-0.170593	
-0.168304	
-0.166168	
-0.164185	
-0.162506	
-0.160675	
-0.158997	
-0.157776	
-0.156708	
-0.156097	
-0.155334	
-0.155487	
-0.155334	
-0.155487	
-0.155487	
-0.15625	
-0.157013	
-0.158234	
-0.159454	
-0.160522	
-0.161896	
-0.163269	
-0.164642	
-0.166168	
-0.167389	
-0.168457	
-0.16983	
-0.171356	
-0.172119	
-0.172729	
-0.17395	
-0.173798	
-0.173492	
-0.174103	
-0.173798	
-0.173035	
-0.171814	
-0.170441	
-0.168762	
-0.166931	
-0.164795	
-0.162354	
-0.15976	
-0.156708	
-0.153198	
-0.149689	
-0.146179	
-0.142212	
-0.138245	
-0.133972	
-0.1297	
-0.125275	
-0.121155	
-0.116577	
-0.112305	
-0.10788	
-0.103455	
-0.0993347	
-0.0953674	
-0.091095	
-0.0875854	
-0.0837708	
-0.0804138	
-0.0776672	
-0.0746155	
-0.0717163	
-0.0689697	
-0.0672913	
-0.0653076	
-0.0639343	
-0.0627136	
-0.062561	
-0.0621033	
-0.0622559	
-0.062561	
-0.0634766	
-0.0645447	
-0.0657654	
-0.0674438	
-0.0694275	
-0.071106	
-0.0737	
-0.0759888	
-0.0785828	
-0.0811768	
-0.0840759	
-0.0862122	
-0.0889587	
-0.0917053	
-0.0938416	
-0.0959778	
-0.0976563	
-0.0993347	
-0.100708	
-0.101929	
-0.102844	
-0.103455	
-0.103607	
-0.103302	
-0.102997	
-0.102234	
-0.100861	
-0.0997925	
-0.0979614	
-0.0959778	
-0.093689	
-0.0907898	
-0.0878906	
-0.0849915	
-0.0820923	
-0.0785828	
-0.075531	
-0.0717163	
-0.0680542	
-0.0646973	
-0.0613403	
-0.0575256	
-0.0540161	
-0.0509644	
-0.0471497	
-0.0444031	
-0.0419617	
-0.0392151	
-0.0367737	
-0.0346375	
-0.0326538	
-0.0305176	
-0.0296021	
-0.0282288	
-0.0276184	
-0.0265503	
-0.0267029	
-0.0263977	
-0.0262451	
-0.0265503	
-0.0270081	
-0.0274658	
-0.0282288	
-0.0285339	
-0.0297546	
-0.0305176	
-0.0314331	
-0.0323486	
-0.0332642	
-0.0337219	
-0.0344849	
-0.03479	
-0.0350952	
-0.0358582	
-0.0357056	
-0.0357056	
-0.0354004	
-0.0349426	
-0.0335693	
-0.0325012	
-0.0317383	
-0.0297546	
-0.0283813	
-0.0259399	
-0.0239563	
-0.0215149	
-0.0184631	
-0.0151062	
-0.0117493	
-0.00808716	
-0.00427246	
-0.000152588	
0.00396729	
0.00839233	
0.0131226	
0.018158	
0.0228882	
0.0280762	
0.0331116	
0.0390625	
0.0442505	
0.0500488	
0.0556946	
0.0616455	
0.067749	
0.0737	
0.0798035	
0.0862122	
0.0920105	
0.0984192	
0.104675	
0.111084	
0.116882	
0.122833	
0.128784	
0.134735	
0.140228	
0.145264	
0.150757	
0.155792	
0.160217	
0.164642	
0.16922	
0.172729	
0.176086	
0.178986	
0.18219	
0.184174	
0.186462	
0.188293	
0.189667	
0.19104	
0.191956	
0.192566	
0.193024	
0.193634	
0.193787	
0.194092	
0.194397	
0.194855	
0.195313	
0.19577	
0.196381	
0.197144	
0.198364	
0.199585	
0.200806	
0.202637	
0.20462	
0.206757	
0.209045	
0.21225	
0.215302	
0.218506	
0.222015	
0.226288	
0.23056	
0.234833	
0.23941	
0.244293	
0.249329	
0.254059	
0.259247	
0.264435	
0.269012	
0.274506	
0.279388	
0.283966	
0.288544	
0.292664	
0.296631	
0.300293	
0.303345	
0.306396	
0.308838	
0.310364	
0.311584	
0.3125	
0.312347	
0.312653	
0.312042	
0.310669	
0.309448	
0.307159	
0.304718	
0.301819	
0.298462	
0.29541	
0.291901	
0.287781	
0.283966	
0.279999	
0.276184	
0.272064	
0.268555	
0.26474	
0.261688	
0.258026	
0.25528	
0.25238	
0.249329	
0.247192	
0.245056	
0.24292	
0.241394	
0.240173	
0.239105	
0.238342	
0.237579	
0.237122	
0.237427	
0.236969	
0.237274	
0.237732	
0.238037	
0.238495	
0.2388	
0.23941	
0.240021	
0.239868	
0.240173	
0.240173	
0.239868	
0.23941	
0.239105	
0.238342	
0.237122	
0.235596	
0.233917	
0.231934	
0.229645	
0.22644	
0.223389	
0.219879	
0.216217	
0.212097	
0.207825	
0.2034	
0.198059	
0.192871	
0.187378	
0.181732	
0.175934	
0.16983	
0.163879	
0.157471	
0.151062	
0.144958	
0.138397	
0.132294	
0.125885	
0.119781	
0.113373	
0.107574	
0.101624	
0.0961304	
0.0901794	
0.0849915	
0.0796509	
0.0744629	
0.0698853	
0.0648499	
0.0601196	
0.0558472	
0.0517273	
0.0471497	
0.043335	
0.0396729	
0.0357056	
0.032196	
0.0288391	
0.025177	
0.0213623	
0.0180054	
0.0141907	
0.0106812	
0.00686646	
0.00320435	
-0.000152588	
-0.00442505	
-0.00808716	
-0.012207	
-0.0166321	
-0.0209045	
-0.0253296	
-0.0299072	
-0.0346375	
-0.0395203	
-0.0439453	
-0.0491333	
-0.0546265	
-0.0596619	
-0.0653076	
-0.0706482	
-0.0759888	
-0.0817871	
-0.0871277	
-0.0935364	
-0.0990295	
-0.104523	
-0.110168	
-0.115967	
-0.121613	
-0.126953	
-0.132141	
-0.137329	
-0.142365	
-0.146942	
-0.151062	
-0.15564	
-0.15976	
-0.163269	
-0.166779	
-0.16983	
-0.172577	
-0.175171	
-0.177307	
-0.179291	
-0.180359	
-0.181427	
-0.182495	
-0.183105	
-0.183258	
-0.183258	
-0.183105	
-0.182343	
-0.18219	
-0.181274	
-0.180054	
-0.178986	
-0.177307	
-0.176086	
-0.174561	
-0.172577	
-0.170593	
-0.168304	
-0.166016	
-0.164032	
-0.161896	
-0.159302	
-0.157318	
-0.155029	
-0.152435	
-0.150146	
-0.147858	
-0.145569	
-0.143127	
-0.140991	
-0.138855	
-0.136719	
-0.134735	
-0.133057	
-0.13092	
-0.128632	
-0.127716	
-0.125885	
-0.124512	
-0.123291	
-0.12207	
-0.121155	
-0.120697	
-0.119629	
-0.119324	
-0.118713	
-0.118408	
-0.118256	
-0.118103	
-0.118408	
-0.118256	
-0.118866	
-0.119019	
-0.119476	
-0.120239	
-0.12085	
-0.121613	
-0.122528	
-0.123291	
-0.124054	
-0.125122	
-0.12619	
-0.127411	
-0.128479	
-0.1297	
-0.131226	
-0.132141	
-0.133667	
-0.134888	
-0.136108	
-0.137329	
-0.138245	
-0.13916	
-0.140076	
-0.140228	
-0.140839	
-0.141296	
-0.141296	
-0.141296	
-0.140686	
-0.140381	
-0.139771	
-0.138855	
-0.138092	
-0.137177	
-0.135803	
-0.135193	
-0.134277	
-0.133057	
-0.131836	
-0.131378	
-0.130005	
-0.128632	
-0.127563	
-0.126648	
-0.125885	
-0.124512	
-0.123444	
-0.122681	
-0.121613	
-0.120697	
-0.120392	
-0.119324	
-0.118256	
-0.118256	
-0.117645	
-0.117645	
-0.117493	
-0.117493	
-0.117798	
-0.118256	
-0.119019	
-0.119629	
-0.120544	
-0.121765	
-0.122681	
-0.123596	
-0.124817	
-0.125427	
-0.126343	
-0.127411	
-0.128784	
-0.129852	
-0.13092	
-0.131989	
-0.132751	
-0.13382	
-0.13504	
-0.135345	
-0.136261	
-0.137177	
-0.137787	
-0.138397	
-0.13916	
-0.139465	
-0.140228	
-0.140533	
-0.140228	
-0.140533	
-0.140533	
-0.140839	
-0.139923	
-0.139465	
-0.138245	
-0.137787	
-0.136414	
-0.13504	
-0.133667	
-0.132294	
-0.130463	
-0.128784	
-0.126801	
-0.124512	
-0.12207	
-0.119934	
-0.117645	
-0.114746	
-0.112457	
-0.109863	
-0.107269	
-0.10437	
-0.102081	
-0.0991821	
-0.0964355	
-0.0933838	
-0.0907898	
-0.088501	
-0.0857544	
-0.0827026	
-0.0804138	
-0.0776672	
-0.0756836	
-0.0737	
-0.0717163	
-0.0697327	
-0.0682068	
-0.0671387	
-0.0654602	
-0.0646973	
-0.0639343	
-0.0631714	
-0.0630188	
-0.0627136	
-0.0630188	
-0.0628662	
-0.0636292	
-0.0643921	
-0.0653076	
-0.0662231	
-0.0675964	
-0.0689697	
-0.0704956	
-0.0720215	
-0.0741577	
-0.0761414	
-0.0779724	
-0.0804138	
-0.0823975	
-0.0846863	
-0.0872803	
-0.0898743	
-0.0920105	
-0.0950623	
-0.0968933	
-0.0996399	
-0.101929	
-0.104523	
-0.106812	
-0.109253	
-0.111389	
-0.113678	
-0.116119	
-0.118408	
-0.12085	
-0.123138	
-0.125122	
-0.127258	
-0.129089	
-0.13092	
-0.133362	
-0.13504	
-0.136871	
-0.138397	
-0.140076	
-0.141754	
-0.14267	
-0.143738	
-0.144806	
-0.145569	
-0.145721	
-0.146027	
-0.145569	
-0.145264	
-0.144348	
-0.143585	
-0.141449	
-0.139771	
-0.137329	
-0.13504	
-0.131836	
-0.128479	
-0.125122	
-0.121307	
-0.117493	
-0.112762	
-0.108185	
-0.103149	
-0.0979614	
-0.092926	
-0.0872803	
-0.0813293	
-0.0758362	
-0.0701904	
-0.0639343	
-0.0578308	
-0.0515747	
-0.0453186	
-0.0389099	
-0.0328064	
-0.0267029	
-0.0209045	
-0.0151062	
-0.00961304	
-0.00488281	
-0.000457764	
0.00442505	
0.00808716	
0.0120544	
0.0152588	
0.0180054	
0.0205994	
0.0227356	
0.0250244	
0.0265503	
0.0276184	
0.0283813	
0.0289917	
0.0291443	
0.0292969	
0.0289917	
0.0286865	
0.0286865	
0.0280762	
0.0273132	
0.0273132	
0.0265503	
0.0262451	
0.0260925	
0.0257874	
0.0256348	
0.0257874	
0.0262451	
0.0263977	
0.0267029	
0.027771	
0.0283813	
0.0292969	
0.030365	
0.0314331	
0.032959	
0.0344849	
0.0363159	
0.0379944	
0.039978	
0.0418091	
0.0437927	
0.0454712	
0.0476074	
0.0495911	
0.0518799	
0.0531006	
0.0552368	
0.0566101	
0.058136	
0.0593567	
0.06073	
0.0614929	
0.0624084	
0.062561	
0.0631714	
0.0628662	
0.0628662	
0.0631714	
0.062561	
0.0617981	
0.0614929	
0.06073	
0.0601196	
0.0588989	
0.0579834	
0.0567627	
0.0558472	
0.0547791	
0.0537109	
0.0531006	
0.0520325	
0.0508118	
0.0502014	
0.0492859	
0.0483704	
0.0482178	
0.0476074	
0.0473022	
0.0468445	
0.0465393	
0.0462341	
0.0457764	
0.0456238	
0.0460815	
0.0457764	
0.045929	
0.045929	
0.0457764	
0.0456238	
0.0460815	
0.0460815	
0.0456238	
0.0463867	
0.0462341	
0.0457764	
0.0456238	
0.0454712	
0.045166	
0.0447083	
0.043335	
0.042572	
0.0416565	
0.039978	
0.0387573	
0.0370789	
0.0350952	
0.0328064	
0.0306702	
0.0282288	
0.0253296	
0.022583	
0.0195313	
0.0160217	
0.01297	
0.00930786	
0.00610352	
0.00213623	
-0.00183105	
-0.00549316	
-0.00961304	
-0.0134277	
-0.0172424	
-0.0212097	
-0.0253296	
-0.0292969	
-0.0331116	
-0.0367737	
-0.0405884	
-0.0442505	
-0.0482178	
-0.0515747	
-0.0549316	
-0.0585938	
-0.0624084	
-0.0663757	
-0.0695801	
-0.0730896	
-0.0772095	
-0.0808716	
-0.0846863	
-0.0878906	
-0.0917053	
-0.0953674	
-0.0987244	
-0.101929	
-0.105286	
-0.108948	
-0.111694	
-0.115204	
-0.118256	
-0.121765	
-0.124817	
-0.127869	
-0.13092	
-0.134583	
-0.137634	
-0.140686	
-0.144348	
-0.147247	
-0.150299	
-0.153809	
-0.157013	
-0.160065	
-0.163269	
-0.166473	
-0.168915	
-0.171967	
-0.174713	
-0.177307	
-0.179596	
-0.181885	
-0.183868	
-0.185547	
-0.187531	
-0.188904	
-0.190125	
-0.191498	
-0.192261	
-0.192871	
-0.193481	
-0.193939	
-0.194397	
-0.194855	
-0.19455	
-0.194855	
-0.194397	
-0.193939	
-0.193481	
-0.192871	
-0.192413	
-0.191345	
-0.19104	
-0.189972	
-0.189362	
-0.188599	
-0.187531	
-0.187073	
-0.186005	
-0.185242	
-0.184631	
-0.183868	
-0.183258	
-0.182495	
-0.18219	
-0.18158	
-0.18158	
-0.181274	
-0.180817	
-0.180969	
-0.180511	
-0.180664	
-0.180664	
-0.181122	
-0.180664	
-0.180206	
-0.180511	
-0.180511	
-0.180054	
-0.179901	
-0.179596	
-0.179138	
-0.178833	
-0.178223	
-0.178223	
-0.17746	
-0.177307	
-0.176392	
-0.176086	
-0.175323	
-0.174866	
-0.174255	
-0.17334	
-0.172882	
-0.171967	
-0.171661	
-0.170441	
-0.169525	
-0.168152	
-0.167542	
-0.166626	
-0.165253	
-0.164948	
-0.163879	
-0.163269	
-0.162048	
-0.161591	
-0.16037	
-0.159912	
-0.158691	
-0.158234	
-0.157471	
-0.157471	
-0.156708	
-0.156555	
-0.15625	
-0.155945	
-0.155487	
-0.155182	
-0.155182	
-0.154572	
-0.153961	
-0.153809	
-0.153656	
-0.152588	
-0.151978	
-0.151062	
-0.150757	
-0.149231	
-0.148621	
-0.1474	
-0.146027	
-0.145264	
-0.144653	
-0.14328	
-0.142517	
-0.141602	
-0.141144	
-0.140381	
-0.140076	
-0.139923	
-0.140076	
-0.140381	
-0.141449	
-0.142365	
-0.14328	
-0.144806	
-0.146942	
-0.149384	
-0.15152	
-0.154724	
-0.157623	
-0.161743	
-0.165558	
-0.16983	
-0.174408	
-0.178833	
-0.183868	
-0.188904	
-0.193939	
-0.199127	
-0.204315	
-0.209045	
-0.213776	
-0.218658	
-0.222931	
-0.22644	
-0.22995	
-0.232697	
-0.235443	
-0.237274	
-0.238037	
-0.2388	
-0.238342	
-0.237274	
-0.234833	
-0.231476	
-0.227661	
-0.222168	
-0.215759	
-0.207977	
-0.19928	
-0.189362	
-0.178375	
-0.165863	
-0.152588	
-0.137939	
-0.122375	
-0.105133	
-0.0874329	
-0.0686646	
-0.0486755	
-0.027771	
-0.00579834	
0.017395	
0.0410461	
0.065918	
0.0917053	
0.118256	
0.145569	
0.174103	
0.203247	
0.232849	
0.263214	
0.294037	
0.325165	
0.357513	
0.389862	
0.422821	
0.45639	
0.490265	
0.52536	
0.560608	
0.596771	
0.632477	
0.669556	
0.707245	
0.745239	
0.783691	
0.822144	
0.861206	
0.900116	
0.938873	
0.97702	
1.01501	
1.05225	
1.08902	
1.12411	
1.15845	
1.19095	
1.22253	
1.25198	
1.27884	
1.30371	
1.32629	
1.34583	
1.36261	
1.37573	
1.38626	
1.39297	
1.39618	
1.39572	
1.3916	
1.38275	
1.37009	
1.353	
1.33163	
1.30585	
1.27563	
1.2413	
1.20224	
1.15936	
1.11252	
1.06171	
1.00739	
0.949554	
0.888824	
0.825195	
0.758667	
0.690765	
0.620575	
0.548248	
0.475311	
0.401917	
0.328064	
0.254211	
0.180054	
0.107727	
0.0363159	
-0.0337219	
-0.101776	
-0.168304	
-0.232239	
-0.293427	
-0.351868	
-0.406799	
-0.458527	
-0.506592	
-0.55069	
-0.590668	
-0.627136	
-0.659943	
-0.687714	
-0.71167	
-0.731812	
-0.748138	
-0.760193	
-0.767822	
-0.7724	
-0.773468	
-0.770416	
-0.764771	
-0.75592	
-0.744476	
-0.730438	
-0.714111	
-0.695038	
-0.675354	
-0.653229	
-0.630341	
-0.606079	
-0.581207	
-0.555725	
-0.529785	
-0.50415	
-0.47821	
-0.452576	
-0.427246	
-0.402679	
-0.379181	
-0.355835	
-0.33371	
-0.312805	
-0.292816	
-0.274353	
-0.256653	
-0.240936	
-0.226593	
-0.213318	
-0.201874	
-0.191956	
-0.182953	
-0.176239	
-0.169983	
-0.165863	
-0.162354	
-0.160217	
-0.159149	
-0.158997	
-0.159302	
-0.161133	
-0.163422	
-0.166321	
-0.16983	
-0.173492	
-0.177612	
-0.181885	
-0.18692	
-0.19165	
-0.195923	
-0.200806	
-0.205231	
-0.209503	
-0.213623	
-0.217896	
-0.221405	
-0.224304	
-0.227814	
-0.230103	
-0.232086	
-0.23407	
-0.235748	
-0.236664	
-0.237579	
-0.237885	
-0.238037	
-0.237732	
-0.237274	
-0.236359	
-0.235596	
-0.23407	
-0.232697	
-0.231018	
-0.229034	
-0.227203	
-0.225372	
-0.222778	
-0.2211	
-0.218964	
-0.21698	
-0.214691	
-0.212708	
-0.210876	
-0.209045	
-0.207062	
-0.205078	
-0.20401	
-0.202179	
-0.200806	
-0.199738	
-0.198669	
-0.197296	
-0.196838	
-0.195923	
-0.19516	
-0.194397	
-0.194244	
-0.193329	
-0.192719	
-0.192261	
-0.191498	
-0.19165	
-0.190887	
-0.190887	
-0.189972	
-0.189514	
-0.189056	
-0.188599	
-0.187836	
-0.187531	
-0.18692	
-0.186157	
-0.185242	
-0.184326	
-0.183258	
-0.182343	
-0.181122	
-0.179596	
-0.178528	
-0.177155	
-0.175629	
-0.174103	
-0.172729	
-0.170898	
-0.169067	
-0.167694	
-0.166321	
-0.164795	
-0.162964	
-0.161591	
-0.160217	
-0.158386	
-0.157776	
-0.156097	
-0.155487	
-0.154419	
-0.154266	
-0.153656	
-0.153046	
-0.153351	
-0.152588	
-0.152893	
-0.153198	
-0.153198	
-0.153809	
-0.154877	
-0.155182	
-0.155945	
-0.15686	
-0.157623	
-0.158691	
-0.159302	
-0.15976	
-0.16037	
-0.16098	
-0.161438	
-0.161591	
-0.161591	
-0.161743	
-0.161438	
-0.16098	
-0.160522	
-0.160217	
-0.158691	
-0.157623	
-0.156555	
-0.155182	
-0.152893	
-0.151215	
-0.149231	
-0.146942	
-0.144348	
-0.142365	
-0.139008	
-0.136261	
-0.133057	
-0.130005	
-0.126801	
-0.123596	
-0.120239	
-0.116882	
-0.113983	
-0.111084	
-0.107727	
-0.104675	
-0.102234	
-0.0994873	
-0.0971985	
-0.0949097	
-0.0927734	
-0.091095	
-0.0895691	
-0.0880432	
-0.0866699	
-0.0860596	
-0.0849915	
-0.0843811	
-0.0837708	
-0.0837708	
-0.0830078	
-0.0830078	
-0.08255	
-0.0823975	
-0.0822449	
-0.0819397	
-0.0819397	
-0.0820923	
-0.0816345	
-0.0817871	
-0.0814819	
-0.0810242	
-0.0805664	
-0.0799561	
-0.0794983	
-0.0790405	
-0.078125	
-0.0775146	
-0.0767517	
-0.075531	
-0.0746155	
-0.0732422	
-0.0718689	
-0.0697327	
-0.0680542	
-0.0660706	
-0.063324	
-0.0605774	
-0.0579834	
-0.0544739	
-0.0511169	
-0.0473022	
-0.0437927	
-0.0396729	
-0.0360107	
-0.0309753	
-0.0265503	
-0.0219727	
-0.0175476	
-0.012207	
-0.00762939	
-0.00228882	
0.00274658	
0.00747681	
0.01297	
0.0177002	
0.0233459	
0.0282288	
0.0332642	
0.038147	
0.0428772	
0.0474548	
0.0527954	
0.0572205	
0.0622559	
0.0663757	
0.071106	
0.0752258	
0.0798035	
0.0842285	
0.0881958	
0.0921631	
0.0961304	
0.0996399	
0.103149	
0.106201	
0.109863	
0.11261	
0.115814	
0.118561	
0.121002	
0.123444	
0.126343	
0.128632	
0.131378	
0.13382	
0.135956	
0.13855	
0.140991	
0.14328	
0.145569	
0.148621	
0.151367	
0.153809	
0.15686	
0.15976	
0.162811	
0.166168	
0.169525	
0.172729	
0.176392	
0.179443	
0.183258	
0.18692	
0.190277	
0.194244	
0.198059	
0.202026	
0.205383	
0.209656	
0.21347	
0.21698	
0.220795	
0.224762	
0.228271	
0.232239	
0.235443	
0.2388	
0.24292	
0.246582	
0.249481	
0.252686	
0.25589	
0.259247	
0.262299	
0.26474	
0.267487	
0.270386	
0.272522	
0.274506	
0.2771	
0.278473	
0.280151	
0.281372	
0.282898	
0.283813	
0.284576	
0.285187	
0.28595	
0.28595	
0.285797	
0.285339	
0.285187	
0.284119	
0.283508	
0.282288	
0.281067	
0.279846	
0.27832	
0.276337	
0.274658	
0.272827	
0.270386	
0.26825	
0.265961	
0.263214	
0.26062	
0.258179	
0.254974	
0.252075	
0.249176	
0.246124	
0.24292	
0.239716	
0.236359	
0.233002	
0.229797	
0.226593	
0.223236	
0.219879	
0.216522	
0.21347	
0.209961	
0.207062	
0.203857	
0.200806	
0.197449	
0.193939	
0.191345	
0.188141	
0.184784	
0.181732	
0.178375	
0.175323	
0.172577	
0.169373	
0.166168	
0.163116	
0.160065	
0.156555	
0.153503	
0.150604	
0.147095	
0.143585	
0.139923	
0.135956	
0.132141	
0.128174	
0.124359	
0.120392	
0.115814	
0.111847	
0.107574	
0.103302	
0.0987244	
0.0942993	
0.0897217	
0.0846863	
0.0799561	
0.0747681	
0.0700378	
0.0642395	
0.0590515	
0.0537109	
0.0483704	
0.0431824	
0.0379944	
0.0328064	
0.0274658	
0.0224304	
0.0169373	
0.0117493	
0.00671387	
0.00183105	
-0.00335693	
-0.00778198	
-0.0126648	
-0.0167847	
-0.0215149	
-0.0257874	
-0.0294495	
-0.0340271	
-0.0375366	
-0.040741	
-0.0444031	
-0.04776	
-0.0508118	
-0.0541687	
-0.0569153	
-0.059967	
-0.0628662	
-0.065918	
-0.0683594	
-0.0709534	
-0.0732422	
-0.0759888	
-0.0787354	
-0.0811768	
-0.0837708	
-0.0866699	
-0.0891113	
-0.0920105	
-0.0949097	
-0.0985718	
-0.101471	
-0.104523	
-0.108032	
-0.111542	
-0.115662	
-0.119171	
-0.123291	
-0.126801	
-0.13031	
-0.133667	
-0.137177	
-0.141296	
-0.144653	
-0.147858	
-0.151367	
-0.154877	
-0.158234	
-0.161896	
-0.16449	
-0.167694	
-0.170746	
-0.17334	
-0.176392	
-0.178986	
-0.181274	
-0.183258	
-0.184784	
-0.186005	
-0.186615	
-0.186768	
-0.186615	
-0.186157	
-0.185394	
-0.183716	
-0.181732	
-0.179749	
-0.177155	
-0.174103	
-0.170746	
-0.167236	
-0.163574	
-0.15976	
-0.155334	
-0.151215	
-0.147247	
-0.142822	
-0.138092	
-0.134125	
-0.1297	
-0.125732	
-0.121765	
-0.118256	
-0.114288	
-0.110931	
-0.10849	
-0.105743	
-0.103149	
-0.101013	
-0.0996399	
-0.0984192	
-0.098114	
-0.0978088	
-0.0984192	
-0.0991821	
-0.100555	
-0.102386	
-0.10437	
-0.10788	
-0.111542	
-0.115051	
-0.119781	
-0.124359	
-0.129395	
-0.134888	
-0.140533	
-0.146637	
-0.15274	
-0.158844	
-0.165405	
-0.171661	
-0.177612	
-0.183716	
-0.189514	
-0.19577	
-0.201263	
-0.206299	
-0.211182	
-0.215454	
-0.219269	
-0.222168	
-0.224762	
-0.227814	
-0.229187	
-0.230103	
-0.23056	
-0.230713	
-0.230103	
-0.229187	
-0.227814	
-0.225525	
-0.223236	
-0.220337	
-0.217438	
-0.213623	
-0.210114	
-0.206146	
-0.202484	
-0.198517	
-0.194397	
-0.189972	
-0.186157	
-0.181885	
-0.177765	
-0.173798	
-0.169983	
-0.166168	
-0.162811	
-0.158997	
-0.155487	
-0.152435	
-0.149536	
-0.146637	
-0.14389	
-0.141449	
-0.139313	
-0.137024	
-0.13504	
-0.133362	
-0.131989	
-0.13031	
-0.129395	
-0.128479	
-0.127106	
-0.126343	
-0.125732	
-0.124664	
-0.123444	
-0.122681	
-0.12146	
-0.119629	
-0.118408	
-0.116882	
-0.115356	
-0.113068	
-0.111084	
-0.109406	
-0.106964	
-0.104675	
-0.102386	
-0.100555	
-0.0979614	
-0.0958252	
-0.093689	
-0.0914001	
-0.0894165	
-0.0878906	
-0.0860596	
-0.0848389	
-0.0839233	
-0.0828552	
-0.0823975	
-0.0822449	
-0.0822449	
-0.0830078	
-0.0840759	
-0.0854492	
-0.0871277	
-0.0897217	
-0.0920105	
-0.0950623	
-0.0984192	
-0.102234	
-0.106201	
-0.110474	
-0.114899	
-0.119629	
-0.124664	
-0.1297	
-0.13504	
-0.140076	
-0.145569	
-0.151062	
-0.15625	
-0.161438	
-0.166779	
-0.171967	
-0.176544	
-0.181122	
-0.185547	
-0.189362	
-0.192871	
-0.196075	
-0.198822	
-0.201569	
-0.203705	
-0.205078	
-0.206299	
-0.207062	
-0.206604	
-0.206299	
-0.205078	
-0.203094	
-0.200806	
-0.197601	
-0.193634	
-0.189514	
-0.184326	
-0.179138	
-0.173187	
-0.167084	
-0.160675	
-0.153503	
-0.146332	
-0.139008	
-0.131378	
-0.123596	
-0.115509	
-0.108185	
-0.0997925	
-0.0918579	
-0.0843811	
-0.0767517	
-0.0695801	
-0.0624084	
-0.0559998	
-0.0494385	
-0.0436401	
-0.0384521	
-0.0335693	
-0.0291443	
-0.025177	
-0.0218201	
-0.0193787	
-0.017395	
-0.0160217	
-0.0152588	
-0.0151062	
-0.0157166	
-0.0170898	
-0.0190735	
-0.0215149	
-0.0250244	
-0.0286865	
-0.0334167	
-0.038147	
-0.0437927	
-0.0497437	
-0.0561523	
-0.0627136	
-0.0692749	
-0.0764465	
-0.0830078	
-0.0900269	
-0.0968933	
-0.103607	
-0.110168	
-0.116119	
-0.12207	
-0.127258	
-0.132141	
-0.136261	
-0.140076	
-0.142975	
-0.145416	
-0.147095	
-0.147858	
-0.148163	
-0.148163	
-0.1474	
-0.146027	
-0.143738	
-0.141144	
-0.137939	
-0.134277	
-0.130157	
-0.125732	
-0.120544	
-0.115356	
-0.110168	
-0.104218	
-0.098114	
-0.0924683	
-0.0862122	
-0.080719	
-0.0750732	
-0.0694275	
-0.0643921	
-0.0593567	
-0.0547791	
-0.0506592	
-0.0466919	
-0.0434875	
-0.0405884	
-0.0379944	
-0.0360107	
-0.0344849	
-0.0332642	
-0.0323486	
-0.0320435	
-0.0323486	
-0.0325012	
-0.0332642	
-0.0338745	
-0.0349426	
-0.0363159	
-0.0372314	
-0.0387573	
-0.0398254	
-0.0410461	
-0.0415039	
-0.0422668	
-0.0427246	
-0.0427246	
-0.0424194	
-0.0422668	
-0.0408936	
-0.0393677	
-0.0376892	
-0.0352478	
-0.0328064	
-0.0296021	
-0.0263977	
-0.0222778	
-0.0178528	
-0.0134277	
-0.00823975	
-0.00274658	
0.00244141	
0.00839233	
0.0141907	
0.019989	
0.0259399	
0.0318909	
0.0378418	
0.043335	
0.0491333	
0.0543213	
0.0590515	
0.0631714	
0.0671387	
0.071106	
0.0740051	
0.0761414	
0.078125	
0.0796509	
0.080719	
0.0813293	
0.0816345	
0.0814819	
0.0802612	
0.0791931	
0.0779724	
0.0758362	
0.0741577	
0.0718689	
0.0689697	
0.0660706	
0.0628662	
0.0602722	
0.0570679	
0.0541687	
0.0509644	
0.0483704	
0.0457764	
0.0436401	
0.0419617	
0.0398254	
0.0393677	
0.0384521	
0.0379944	
0.0379944	
0.0382996	
0.0396729	
0.0405884	
0.0422668	
0.0448608	
0.0476074	
0.0508118	
0.0543213	
0.0585938	
0.062561	
0.0671387	
0.0715637	
0.0767517	
0.0813293	
0.0862122	
0.0907898	
0.09552	
0.100098	
0.104523	
0.108337	
0.112457	
0.115204	
0.11795	
0.120392	
0.122528	
0.124054	
0.124664	
0.12558	
0.125122	
0.124817	
0.123749	
0.121918	
0.119324	
0.116272	
0.11261	
0.108032	
0.103455	
0.0979614	
0.0920105	
0.0854492	
0.0787354	
0.071106	
0.0636292	
0.0552368	
0.0473022	
0.0390625	
0.0305176	
0.0218201	
0.0132751	
0.00427246	
-0.00396729	
-0.0119019	
-0.0201416	
-0.0279236	
-0.0352478	
-0.0424194	
-0.0483704	
-0.0543213	
-0.0598145	
-0.0645447	
-0.0692749	
-0.0730896	
-0.0761414	
-0.0793457	
-0.0816345	
-0.0834656	
-0.0848389	
-0.0863647	
-0.0872803	
-0.0874329	
-0.0883484	
-0.0881958	
-0.0875854	
-0.0871277	
-0.0865173	
-0.0862122	
-0.0846863	
-0.0839233	
-0.08255	
-0.0814819	
-0.0802612	
-0.0790405	
-0.0778198	
-0.0764465	
-0.0753784	
-0.0744629	
-0.0737	
-0.0733948	
-0.072937	
-0.0730896	
-0.0733948	
-0.0738525	
-0.0756836	
-0.0770569	
-0.0790405	
-0.0810242	
-0.0839233	
-0.0871277	
-0.0904846	
-0.0944519	
-0.098114	
-0.102081	
-0.106354	
-0.110626	
-0.115051	
-0.119476	
-0.123749	
-0.128326	
-0.132904	
-0.137024	
-0.140991	
-0.145416	
-0.149231	
-0.153198	
-0.157318	
-0.160675	
-0.164032	
-0.167084	
-0.170135	
-0.172729	
-0.175018	
-0.177155	
-0.178833	
-0.180206	
-0.18158	
-0.182343	
-0.183258	
-0.183868	
-0.184021	
-0.184021	
-0.184021	
-0.183105	
-0.182648	
-0.181732	
-0.180359	
-0.179749	
-0.177917	
-0.176544	
-0.175018	
-0.172882	
-0.171204	
-0.169525	
-0.167389	
-0.16571	
-0.163422	
-0.161438	
-0.159302	
-0.157623	
-0.15564	
-0.154266	
-0.152283	
-0.150452	
-0.149384	
-0.14801	
-0.147095	
-0.145874	
-0.144806	
-0.14389	
-0.14328	
-0.142365	
-0.140991	
-0.140076	
-0.139465	
-0.138397	
-0.137787	
-0.136566	
-0.135345	
-0.134277	
-0.132904	
-0.131836	
-0.130005	
-0.128479	
-0.126495	
-0.125122	
-0.123291	
-0.121613	
-0.119476	
-0.117798	
-0.115814	
-0.113983	
-0.112152	
-0.110779	
-0.109406	
-0.107727	
-0.106812	
-0.105743	
-0.104828	
-0.104218	
-0.103455	
-0.103149	
-0.102997	
-0.102386	
-0.102997	
-0.103149	
-0.103302	
-0.103455	
-0.104065	
-0.104828	
-0.105591	
-0.106659	
-0.107269	
-0.108948	
-0.110474	
-0.112152	
-0.113831	
-0.115509	
-0.117645	
-0.119476	
-0.121765	
-0.123749	
-0.126343	
-0.128479	
-0.131073	
-0.13382	
-0.136261	
-0.139618	
-0.142365	
-0.145416	
-0.148621	
-0.151672	
-0.154724	
-0.158386	
-0.161438	
-0.1651	
-0.168304	
-0.172272	
-0.175323	
-0.17868	
-0.182495	
-0.185852	
-0.189056	
-0.193024	
-0.196686	
-0.199738	
-0.203094	
-0.206451	
-0.209656	
-0.21225	
-0.214691	
-0.217133	
-0.218964	
-0.220795	
-0.222168	
-0.222931	
-0.223083	
-0.223389	
-0.222015	
-0.220642	
-0.218811	
-0.215912	
-0.21225	
-0.207977	
-0.202179	
-0.196533	
-0.189209	
-0.180969	
-0.171204	
-0.161591	
-0.150146	
-0.137787	
-0.124512	
-0.110321	
-0.0950623	
-0.0785828	
-0.0614929	
-0.0427246	
-0.0236511	
-0.00335693	
0.0175476	
0.0396729	
0.0630188	
0.0874329	
0.11261	
0.138855	
0.165863	
0.193939	
0.222626	
0.251465	
0.282135	
0.3125	
0.344391	
0.376129	
0.408936	
0.4422	
0.475616	
0.510254	
0.545197	
0.580139	
0.615997	
0.652161	
0.688782	
0.725861	
0.763092	
0.801697	
0.839539	
0.877991	
0.91629	
0.954285	
0.992737	
1.03027	
1.06766	
1.10367	
1.13922	
1.1734	
1.20636	
1.23795	
1.2677	
1.29532	
1.32111	
1.3443	
1.3652	
1.38336	
1.39847	
1.41037	
1.41922	
1.42456	
1.42624	
1.42441	
1.41891	
1.4093	
1.39557	
1.37726	
1.35559	
1.32904	
1.29837	
1.26358	
1.22513	
1.18149	
1.13495	
1.08383	
1.02905	
0.970764	
0.910187	
0.846558	
0.780334	
0.711823	
0.641785	
0.569916	
0.497131	
0.423889	
0.350342	
0.276337	
0.203552	
0.131073	
0.0596619	
-0.00915527	
-0.0764465	
-0.142517	
-0.205536	
-0.265656	
-0.323181	
-0.377197	
-0.427399	
-0.474548	
-0.517578	
-0.557404	
-0.592651	
-0.623627	
-0.650787	
-0.674286	
-0.693665	
-0.708313	
-0.719452	
-0.727234	
-0.730743	
-0.731201	
-0.728149	
-0.721741	
-0.712585	
-0.700684	
-0.687103	
-0.670166	
-0.652008	
-0.631866	
-0.610657	
-0.588074	
-0.56488	
-0.540314	
-0.515442	
-0.490417	
-0.465546	
-0.440369	
-0.415039	
-0.390167	
-0.366516	
-0.342712	
-0.319672	
-0.297241	
-0.275879	
-0.255585	
-0.235596	
-0.21759	
-0.200653	
-0.184174	
-0.168762	
-0.15564	
-0.14267	
-0.132141	
-0.121765	
-0.112762	
-0.105438	
-0.0991821	
-0.0933838	
-0.0894165	
-0.0865173	
-0.0837708	
-0.0827026	
-0.0823975	
-0.0827026	
-0.0831604	
-0.0849915	
-0.0871277	
-0.0897217	
-0.0923157	
-0.09552	
-0.0993347	
-0.103455	
-0.107269	
-0.111694	
-0.116577	
-0.121155	
-0.12619	
-0.130768	
-0.135803	
-0.140533	
-0.145721	
-0.150299	
-0.154724	
-0.159302	
-0.163269	
-0.167236	
-0.171356	
-0.174713	
-0.177765	
-0.181122	
-0.183868	
-0.186005	
-0.188141	
-0.189514	
-0.190887	
-0.192261	
-0.192413	
-0.193024	
-0.193024	
-0.192871	
-0.192566	
-0.191803	
-0.19104	
-0.189819	
-0.188904	
-0.187225	
-0.185394	
-0.184021	
-0.182343	
-0.180511	
-0.179291	
-0.177307	
-0.175476	
-0.17395	
-0.172577	
-0.171051	
-0.169067	
-0.167694	
-0.166321	
-0.164642	
-0.162964	
-0.161896	
-0.160828	
-0.159149	
-0.158081	
-0.157166	
-0.156403	
-0.155334	
-0.154724	
-0.153656	
-0.153198	
-0.15274	
-0.152588	
-0.151672	
-0.151367	
-0.151062	
-0.150604	
-0.150452	
-0.149841	
-0.149536	
-0.149231	
-0.148621	
-0.147858	
-0.146942	
-0.146637	
-0.146179	
-0.145416	
-0.144196	
-0.143127	
-0.142517	
-0.141144	
-0.140076	
-0.138702	
-0.137939	
-0.135956	
-0.134277	
-0.133209	
-0.131226	
-0.129852	
-0.126953	
-0.124969	
-0.122528	
-0.119476	
-0.116425	
-0.113373	
-0.110016	
-0.106506	
-0.102234	
-0.0985718	
-0.0944519	
-0.0900269	
-0.0856018	
-0.080719	
-0.0762939	
-0.0709534	
-0.0666809	
-0.0610352	
-0.0558472	
-0.050354	
-0.0453186	
-0.0396729	
-0.0335693	
-0.0279236	
-0.0219727	
-0.0164795	
-0.0106812	
-0.00488281	
0.000457764	
0.00579834	
0.010376	
0.0149536	
0.0192261	
0.0228882	
0.0262451	
0.0285339	
0.0309753	
0.0326538	
0.0335693	
0.0346375	
0.0344849	
0.0340271	
0.0328064	
0.0309753	
0.0288391	
0.0256348	
0.0222778	
0.018158	
0.0137329	
0.00854492	
0.00305176	
-0.00289917	
-0.00946045	
-0.0160217	
-0.0228882	
-0.0300598	
-0.0367737	
-0.0447083	
-0.0518799	
-0.0593567	
-0.0663757	
-0.0732422	
-0.0794983	
-0.085144	
-0.0909424	
-0.0959778	
-0.0997925	
-0.10376	
-0.106659	
-0.108643	
-0.110168	
-0.110779	
-0.110321	
-0.109253	
-0.107422	
-0.104675	
-0.101166	
-0.0970459	
-0.0921631	
-0.0866699	
-0.0808716	
-0.0744629	
-0.0671387	
-0.0601196	
-0.0524902	
-0.0448608	
-0.0367737	
-0.0286865	
-0.020752	
-0.01297	
-0.00457764	
0.00274658	
0.0105286	
0.0175476	
0.0247192	
0.0314331	
0.0375366	
0.0430298	
0.0482178	
0.0532532	
0.0572205	
0.0613403	
0.0650024	
0.067749	
0.0700378	
0.0720215	
0.0738525	
0.0747681	
0.0753784	
0.0762939	
0.0765991	
0.0770569	
0.0767517	
0.0761414	
0.0761414	
0.075531	
0.0752258	
0.0753784	
0.0750732	
0.0758362	
0.0762939	
0.0772095	
0.0785828	
0.0805664	
0.0827026	
0.085907	
0.0889587	
0.0930786	
0.0971985	
0.101471	
0.106964	
0.112305	
0.117493	
0.123749	
0.130157	
0.137024	
0.144043	
0.151367	
0.158844	
0.166626	
0.174713	
0.183258	
0.191345	
0.200195	
0.208588	
0.21759	
0.226288	
0.234833	
0.243378	
0.251923	
0.260315	
0.267944	
0.276031	
0.283661	
0.290527	
0.297394	
0.30365	
0.309601	
0.314484	
0.319519	
0.323334	
0.326996	
0.330048	
0.332031	
0.333405	
0.334625	
0.33493	
0.33432	
0.333099	
0.331879	
0.329895	
0.326996	
0.323944	
0.320129	
0.316315	
0.312195	
0.307617	
0.30304	
0.297852	
0.292358	
0.287018	
0.281677	
0.276642	
0.271759	
0.266876	
0.262146	
0.258026	
0.254211	
0.25116	
0.248108	
0.245819	
0.244141	
0.242615	
0.241699	
0.241394	
0.241394	
0.242462	
0.243683	
0.245514	
0.247955	
0.250397	
0.253601	
0.256958	
0.26062	
0.265045	
0.268097	
0.272827	
0.276184	
0.280151	
0.284119	
0.287628	
0.290375	
0.292969	
0.295105	
0.297089	
0.298309	
0.299377	
0.299377	
0.29892	
0.298309	
0.296783	
0.294342	
0.292053	
0.288544	
0.285187	
0.280762	
0.275879	
0.270538	
0.264893	
0.258789	
0.25238	
0.245819	
0.238647	
0.231934	
0.224915	
0.21759	
0.211182	
0.204315	
0.197754	
0.191193	
0.185394	
0.179901	
0.174561	
0.169983	
0.165558	
0.162201	
0.158844	
0.156555	
0.155182	
0.154114	
0.153351	
0.153503	
0.153961	
0.154572	
0.15564	
0.15686	
0.159302	
0.16098	
0.163116	
0.1651	
0.166931	
0.168762	
0.170441	
0.171814	
0.172729	
0.173492	
0.173798	
0.173492	
0.17334	
0.171356	
0.170135	
0.167999	
0.164948	
0.162048	
0.157928	
0.153656	
0.148621	
0.14328	
0.137482	
0.13092	
0.123749	
0.11673	
0.1091	
0.101166	
0.092926	
0.0839233	
0.075531	
0.0669861	
0.0578308	
0.0492859	
0.0404358	
0.0323486	
0.0236511	
0.0152588	
0.00778198	
0.000152588	
-0.00671387	
-0.0138855	
-0.0195313	
-0.0253296	
-0.0306702	
-0.0350952	
-0.0393677	
-0.0431824	
-0.0463867	
-0.0489807	
-0.0512695	
-0.0532532	
-0.0544739	
-0.0558472	
-0.0569153	
-0.0569153	
-0.0578308	
-0.0579834	
-0.0578308	
-0.057373	
-0.0576782	
-0.0570679	
-0.0567627	
-0.0564575	
-0.0559998	
-0.0561523	
-0.0556946	
-0.055542	
-0.0552368	
-0.0549316	
-0.0549316	
-0.0553894	
-0.0553894	
-0.0556946	
-0.0564575	
-0.0570679	
-0.0579834	
-0.0590515	
-0.059967	
-0.0611877	
-0.0622559	
-0.0636292	
-0.0645447	
-0.0656128	
-0.0663757	
-0.0675964	
-0.0686646	
-0.0697327	
-0.0709534	
-0.0720215	
-0.0732422	
-0.0746155	
-0.0761414	
-0.0770569	
-0.0790405	
-0.0808716	
-0.0822449	
-0.0845337	
-0.0862122	
-0.0881958	
-0.0904846	
-0.092926	
-0.0950623	
-0.0975037	
-0.100403	
-0.102692	
-0.105286	
-0.108185	
-0.111084	
-0.113525	
-0.116577	
-0.119019	
-0.121765	
-0.123901	
-0.126343	
-0.128784	
-0.13092	
-0.132751	
-0.134888	
-0.136414	
-0.138245	
-0.139465	
-0.140533	
-0.141602	
-0.142365	
-0.142822	
-0.142822	
-0.143433	
-0.142822	
-0.14267	
-0.142059	
-0.140686	
-0.139771	
-0.137939	
-0.136261	
-0.134277	
-0.132599	
-0.129852	
-0.127563	
-0.125275	
-0.12207	
-0.119629	
-0.116425	
-0.113373	
-0.110931	
-0.10788	
-0.10498	
-0.101776	
-0.098877	
-0.0961304	
-0.092926	
-0.0901794	
-0.0874329	
-0.0852966	
-0.08255	
-0.0805664	
-0.0785828	
-0.0765991	
-0.0746155	
-0.0730896	
-0.0714111	
-0.070343	
-0.0686646	
-0.0672913	
-0.0662231	
-0.0650024	
-0.0642395	
-0.0631714	
-0.0624084	
-0.0619507	
-0.0613403	
-0.0602722	
-0.0598145	
-0.0592041	
-0.0585938	
-0.058136	
-0.058136	
-0.0579834	
-0.0570679	
-0.0569153	
-0.0564575	
-0.0561523	
-0.0559998	
-0.0558472	
-0.0552368	
-0.0552368	
-0.0550842	
-0.0546265	
-0.0546265	
-0.0541687	
-0.0543213	
-0.0541687	
-0.0537109	
-0.0535583	
-0.0532532	
-0.0532532	
-0.0532532	
-0.0527954	
-0.0526428	
-0.0526428	
-0.0520325	
-0.0520325	
-0.0512695	
-0.0515747	
-0.0505066	
-0.0502014	
-0.0495911	
-0.0494385	
-0.0489807	
-0.0480652	
-0.0479126	
-0.0474548	
-0.0471497	
-0.0463867	
-0.045929	
-0.0456238	
-0.0453186	
-0.0445557	
-0.0442505	
-0.0437927	
-0.0431824	
-0.0427246	
-0.0422668	
-0.0418091	
-0.0411987	
-0.0408936	
-0.0401306	
-0.0396729	
-0.0395203	
-0.0390625	
-0.0387573	
-0.0384521	
-0.0382996	
-0.0379944	
-0.0375366	
-0.0379944	
-0.0379944	
-0.0379944	
-0.0378418	
-0.0379944	
-0.0382996	
-0.038147	
-0.0386047	
-0.0390625	
-0.0395203	
-0.039978	
-0.0404358	
-0.0408936	
-0.0416565	
-0.0418091	
-0.042572	
-0.0431824	
-0.0436401	
-0.0445557	
-0.0448608	
-0.0454712	
-0.0460815	
-0.0466919	
-0.0469971	
-0.0476074	
-0.0479126	
-0.0480652	
-0.0482178	
-0.0485229	
-0.0483704	
-0.0485229	
-0.0479126	
-0.0480652	
-0.0474548	
-0.0465393	
-0.0453186	
-0.0439453	
-0.0421143	
-0.0402832	
-0.0378418	
-0.035553	
-0.0325012	
-0.0292969	
-0.0260925	
-0.0222778	
-0.0184631	
-0.0141907	
-0.0100708	
-0.00549316	
-0.000762939	
0.00366211	
0.0088501	
0.0132751	
0.0187683	
0.0236511	
0.0285339	
0.0331116	
0.0376892	
0.0416565	
0.0456238	
0.0495911	
0.052948	
0.0561523	
0.0590515	
0.0617981	
0.0640869	
0.0665283	
0.0683594	
0.0698853	
0.0701904	
0.0712585	
0.071106	
0.071106	
0.0698853	
0.0683594	
0.0665283	
0.0645447	
0.0614929	
0.058136	
0.0546265	
0.050354	
0.0465393	
0.0419617	
0.0375366	
0.0325012	
0.0274658	
0.0224304	
0.0172424	
0.0114441	
0.00640869	
0.0012207	
-0.00366211	
-0.00869751	
-0.0137329	
-0.0180054	
-0.0228882	
-0.0271606	
-0.0309753	
-0.0350952	
-0.0384521	
-0.0418091	
-0.0448608	
-0.0476074	
-0.0500488	
-0.0520325	
-0.0534058	
-0.0547791	
-0.0552368	
-0.0561523	
-0.0558472	
-0.0550842	
-0.0541687	
-0.0524902	
-0.0500488	
-0.0476074	
-0.0439453	
-0.0402832	
-0.0360107	
-0.0309753	
-0.0257874	
-0.0198364	
-0.0132751	
-0.00640869	
0.0012207	
0.00854492	
0.0172424	
0.0259399	
0.0354004	
0.0447083	
0.0546265	
0.0650024	
0.0752258	
0.085907	
0.0964355	
0.107269	
0.11795	
0.128021	
0.138092	
0.148315	
0.157776	
0.167236	
0.175781	
0.184021	
0.191803	
0.198822	
0.204773	
0.210571	
0.215149	
0.218353	
0.221252	
0.223083	
0.223846	
0.223846	
0.222931	
0.220642	
0.21759	
0.213623	
0.209503	
0.204315	
0.198669	
0.192261	
0.185089	
0.177765	
0.170288	
0.161896	
0.153961	
0.145416	
0.137024	
0.128326	
0.120087	
0.111694	
0.103455	
0.09552	
0.0878906	
0.0810242	
0.0743103	
0.0682068	
0.0630188	
0.0578308	
0.0537109	
0.050354	
0.0473022	
0.0454712	
0.0439453	
0.0428772	
0.0428772	
0.0434875	
0.0442505	
0.0468445	
0.0485229	
0.0512695	
0.0543213	
0.0578308	
0.0617981	
0.0657654	
0.0695801	
0.0741577	
0.0787354	
0.0830078	
0.0871277	
0.0915527	
0.09552	
0.0996399	
0.103302	
0.106812	
0.110168	
0.113373	
0.115967	
0.118713	
0.120544	
0.122375	
0.123749	
0.124664	
0.125122	
0.12558	
0.125275	
0.124359	
0.123596	
0.122375	
0.121002	
0.119019	
0.116272	
0.113525	
0.110931	
0.10788	
0.104675	
0.100861	
0.0973511	
0.0941467	
0.0897217	
0.085907	
0.0820923	
0.0775146	
0.0732422	
0.0689697	
0.0643921	
0.059967	
0.0553894	
0.0506592	
0.045929	
0.0408936	
0.0363159	
0.0314331	
0.0263977	
0.0212097	
0.0161743	
0.0106812	
0.00564575	
0.000305176	
-0.00488281	
-0.0100708	
-0.0154114	
-0.0210571	
-0.0262451	
-0.0315857	
-0.0372314	
-0.0418091	
-0.0473022	
-0.0524902	
-0.0572205	
-0.0616455	
-0.0665283	
-0.0712585	
-0.0750732	
-0.0790405	
-0.0830078	
-0.0868225	
-0.090332	
-0.0933838	
-0.0967407	
-0.0994873	
-0.102081	
-0.104218	
-0.106354	
-0.10849	
-0.110168	
-0.111694	
-0.112915	
-0.114136	
-0.115051	
-0.115509	
-0.116119	
-0.116882	
-0.117035	
-0.117035	
-0.117188	
-0.117798	
-0.117493	
-0.11795	
-0.117645	
-0.118256	
-0.118103	
-0.118713	
-0.119019	
-0.119171	
-0.120087	
-0.120697	
-0.12146	
-0.122986	
-0.123444	
-0.125122	
-0.126495	
-0.128021	
-0.129395	
-0.130615	
-0.132751	
-0.134125	
-0.135803	
-0.137787	
-0.13916	
-0.140839	
-0.141907	
-0.143433	
-0.144196	
-0.145569	
-0.145721	
-0.146027	
-0.145416	
-0.145416	
-0.144653	
-0.144043	
-0.142822	
-0.140991	
-0.139465	
-0.137024	
-0.134888	
-0.132446	
-0.129395	
-0.126343	
-0.122986	
-0.119324	
-0.115662	
-0.111389	
-0.107422	
-0.103149	
-0.0990295	
-0.0941467	
-0.0897217	
-0.0852966	
-0.0808716	
-0.0770569	
-0.0724792	
-0.0691223	
-0.065918	
-0.0624084	
-0.059967	
-0.058136	
-0.0559998	
-0.0547791	
-0.0541687	
-0.0537109	
-0.0535583	
-0.0540161	
-0.0550842	
-0.0567627	
-0.0587463	
-0.0605774	
-0.0636292	
-0.0666809	
-0.0700378	
-0.0741577	
-0.0784302	
-0.0828552	
-0.0874329	
-0.0926208	
-0.0976563	
-0.102692	
-0.10849	
-0.114136	
-0.119171	
-0.125122	
-0.13031	
-0.135345	
-0.140533	
-0.145264	
-0.149689	
-0.153809	
-0.158081	
-0.161896	
-0.164948	
-0.167694	
-0.16983	
-0.171967	
-0.173187	
-0.174255	
-0.174713	
-0.174408	
-0.173645	
-0.172729	
-0.171356	
-0.16922	
-0.166473	
-0.163879	
-0.160522	
-0.156555	
-0.152893	
-0.148773	
-0.144043	
-0.139923	
-0.135498	
-0.130615	
-0.126038	
-0.121613	
-0.117035	
-0.112915	
-0.109253	
-0.104828	
-0.101013	
-0.0975037	
-0.0938416	
-0.0901794	
-0.0874329	
-0.0840759	
-0.0813293	
-0.078125	
-0.0753784	
-0.072937	
-0.0701904	
-0.0675964	
-0.065155	
-0.0624084	
-0.0602722	
-0.0572205	
-0.0544739	
-0.0515747	
-0.0486755	
-0.045929	
-0.0428772	
-0.0398254	
-0.0363159	
-0.0325012	
-0.0285339	
-0.0238037	
-0.0189209	
-0.0134277	
-0.00747681	
-0.00167847	
0.00579834	
0.0135803	
0.0216675	
0.0305176	
0.0398254	
0.050354	
0.06073	
0.0723267	
0.0848389	
0.0976563	
0.111237	
0.125732	
0.140686	
0.156708	
0.173492	
0.190887	
0.209351	
0.228577	
0.248871	
0.269775	
0.291748	
0.313873	
0.336914	
0.360413	
0.38559	
0.410461	
0.436249	
0.462952	
0.48996	
0.518341	
0.54718	
0.57663	
0.607147	
0.638733	
0.670929	
0.703583	
0.737457	
0.772095	
0.8078	
0.844116	
0.880737	
0.918121	
0.955658	
0.993347	
1.03104	
1.06812	
1.10443	
1.14029	
1.17508	
1.20865	
1.241	
1.27151	
1.2999	
1.32645	
1.35025	
1.37161	
1.39038	
1.40564	
1.418	
1.42624	
1.43143	
1.43234	
1.42944	
1.42258	
1.41129	
1.39557	
1.37558	
1.35101	
1.32156	
1.2886	
1.25092	
1.20895	
1.16272	
1.11282	
1.05911	
1.00204	
0.941467	
0.877991	
0.812225	
0.743866	
0.674133	
0.60257	
0.529785	
0.45639	
0.382538	
0.308685	
0.234985	
0.162506	
0.0912476	
0.0216675	
-0.045929	
-0.111389	
-0.174408	
-0.23407	
-0.290985	
-0.344238	
-0.393982	
-0.440063	
-0.481567	
-0.519867	
-0.553589	
-0.583496	
-0.608673	
-0.62973	
-0.64743	
-0.661163	
-0.670776	
-0.676422	
-0.679016	
-0.677643	
-0.673828	
-0.667114	
-0.657196	
-0.645294	
-0.631256	
-0.614471	
-0.596466	
-0.576935	
-0.556488	
-0.534515	
-0.511932	
-0.488281	
-0.464783	
-0.441132	
-0.417023	
-0.392761	
-0.369873	
-0.346069	
-0.323792	
-0.302277	
-0.280762	
-0.260468	
-0.241089	
-0.222931	
-0.205688	
-0.189056	
-0.174255	
-0.16037	
-0.1474	
-0.135345	
-0.124359	
-0.114899	
-0.106201	
-0.0987244	
-0.0923157	
-0.0862122	
-0.0816345	
-0.0776672	
-0.0747681	
-0.0727844	
-0.0706482	
-0.070343	
-0.070343	
-0.0708008	
-0.0721741	
-0.0741577	
-0.0761414	
-0.0794983	
-0.0831604	
-0.0872803	
-0.0914001	
-0.0965881	
-0.101776	
-0.107422	
-0.113068	
-0.119324	
-0.125885	
-0.132446	
-0.13916	
-0.145874	
-0.15274	
-0.159912	
-0.166626	
-0.173798	
-0.180511	
-0.187073	
-0.193481	
-0.199585	
-0.205231	
-0.210419	
-0.215607	
-0.220032	
-0.224609	
-0.227966	
-0.231018	
-0.233307	
-0.235901	
-0.237579	
-0.238495	
-0.238647	
-0.2388	
-0.237885	
-0.236664	
-0.235138	
-0.232849	
-0.229797	
-0.226593	
-0.223236	
-0.219421	
-0.215302	
-0.211029	
-0.206451	
-0.202026	
-0.197144	
-0.192108	
-0.187531	
-0.183105	
-0.178375	
-0.174103	
-0.169983	
-0.166016	
-0.162201	
-0.158844	
-0.155792	
-0.153046	
-0.150452	
-0.148468	
-0.146484	
-0.144958	
-0.144043	
-0.14328	
-0.142822	
-0.142975	
-0.142975	
-0.14328	
-0.144348	
-0.145111	
-0.145721	
-0.146942	
-0.147858	
-0.148468	
-0.149536	
-0.149994	
-0.150757	
-0.151367	
-0.151367	
-0.151672	
-0.151672	
-0.15152	
-0.150909	
-0.150146	
-0.149841	
-0.148163	
-0.1474	
-0.145874	
-0.144043	
-0.14267	
-0.140533	
-0.138245	
-0.136108	
-0.133972	
-0.131378	
-0.128937	
-0.12619	
-0.123749	
-0.121307	
-0.118713	
-0.116119	
-0.113525	
-0.110931	
-0.10849	
-0.106354	
-0.104065	
-0.101471	
-0.0996399	
-0.0976563	
-0.0958252	
-0.0942993	
-0.0918579	
-0.0900269	
-0.0883484	
-0.0869751	
-0.0849915	
-0.0831604	
-0.0816345	
-0.0799561	
-0.0779724	
-0.0764465	
-0.0746155	
-0.0726318	
-0.0708008	
-0.0691223	
-0.0666809	
-0.0640869	
-0.0617981	
-0.0592041	
-0.0567627	
-0.0537109	
-0.0511169	
-0.0485229	
-0.0454712	
-0.0424194	
-0.0396729	
-0.0370789	
-0.0341797	
-0.0314331	
-0.0292969	
-0.0268555	
-0.0247192	
-0.0227356	
-0.0210571	
-0.0201416	
-0.0189209	
-0.018158	
-0.018158	
-0.0178528	
-0.0180054	
-0.0190735	
-0.0198364	
-0.020752	
-0.0222778	
-0.0236511	
-0.0257874	
-0.0280762	
-0.0302124	
-0.0323486	
-0.03479	
-0.0369263	
-0.0395203	
-0.0424194	
-0.0447083	
-0.0469971	
-0.0489807	
-0.0508118	
-0.0527954	
-0.0546265	
-0.0552368	
-0.0561523	
-0.0566101	
-0.0569153	
-0.0564575	
-0.055542	
-0.0540161	
-0.0526428	
-0.0505066	
-0.0480652	
-0.0453186	
-0.0419617	
-0.0382996	
-0.0343323	
-0.0300598	
-0.0250244	
-0.019989	
-0.0154114	
-0.0102234	
-0.00518799	
0.000457764	
0.00518799	
0.0109863	
0.0163269	
0.020752	
0.0262451	
0.0311279	
0.0360107	
0.0402832	
0.045166	
0.0495911	
0.0537109	
0.0579834	
0.0614929	
0.0650024	
0.068512	
0.0720215	
0.0750732	
0.0775146	
0.0799561	
0.0822449	
0.0843811	
0.0862122	
0.0878906	
0.0897217	
0.0912476	
0.0926208	
0.0944519	
0.0958252	
0.0970459	
0.098877	
0.100098	
0.101318	
0.102997	
0.104065	
0.106049	
0.107574	
0.109558	
0.111237	
0.113373	
0.115509	
0.117798	
0.119781	
0.122375	
0.124969	
0.127563	
0.13031	
0.133209	
0.136108	
0.139465	
0.143127	
0.147095	
0.150909	
0.155182	
0.159302	
0.164185	
0.168762	
0.173645	
0.178375	
0.183563	
0.189514	
0.194855	
0.200043	
0.205841	
0.211487	
0.21698	
0.222778	
0.228424	
0.233917	
0.239716	
0.245667	
0.250854	
0.256348	
0.261841	
0.266876	
0.271454	
0.276184	
0.280609	
0.284729	
0.288544	
0.291595	
0.295258	
0.297852	
0.300751	
0.302734	
0.304565	
0.306549	
0.308075	
0.309448	
0.310211	
0.310974	
0.31189	
0.312347	
0.312958	
0.31311	
0.313416	
0.313263	
0.313263	
0.31311	
0.312958	
0.312805	
0.312347	
0.312042	
0.311584	
0.311279	
0.310822	
0.310364	
0.309753	
0.309143	
0.308685	
0.308075	
0.307465	
0.306244	
0.305634	
0.304871	
0.303802	
0.302124	
0.300751	
0.299072	
0.297089	
0.294952	
0.292358	
0.289917	
0.286865	
0.283813	
0.280762	
0.276947	
0.272827	
0.269318	
0.265045	
0.260925	
0.256348	
0.25116	
0.246735	
0.241699	
0.236664	
0.231476	
0.226288	
0.221405	
0.216217	
0.211029	
0.206146	
0.201569	
0.196686	
0.192108	
0.187683	
0.183563	
0.179596	
0.175781	
0.171661	
0.167999	
0.164795	
0.161285	
0.158386	
0.155182	
0.151978	
0.149384	
0.14679	
0.144043	
0.141296	
0.138397	
0.136108	
0.133667	
0.130768	
0.128174	
0.125275	
0.122681	
0.119629	
0.11673	
0.113831	
0.110321	
0.106659	
0.103607	
0.0997925	
0.0961304	
0.0923157	
0.0886536	
0.0845337	
0.0811768	
0.0773621	
0.0733948	
0.0694275	
0.0656128	
0.0617981	
0.058136	
0.0543213	
0.0506592	
0.0466919	
0.0430298	
0.0393677	
0.0358582	
0.032196	
0.0283813	
0.0247192	
0.0209045	
0.0170898	
0.0131226	
0.00930786	
0.00564575	
0.00167847	
-0.00183105	
-0.00564575	
-0.00930786	
-0.01297	
-0.0164795	
-0.0201416	
-0.0239563	
-0.027771	
-0.0312805	
-0.0350952	
-0.0390625	
-0.0430298	
-0.0466919	
-0.0506592	
-0.0546265	
-0.0582886	
-0.0624084	
-0.0665283	
-0.0700378	
-0.0737	
-0.0772095	
-0.0810242	
-0.0849915	
-0.0881958	
-0.0917053	
-0.0947571	
-0.0979614	
-0.101318	
-0.10437	
-0.106659	
-0.109558	
-0.111389	
-0.113831	
-0.115967	
-0.117798	
-0.118866	
-0.120392	
-0.121765	
-0.122681	
-0.123596	
-0.124054	
-0.124359	
-0.124512	
-0.124664	
-0.125122	
-0.124969	
-0.124664	
-0.124359	
-0.124359	
-0.124207	
-0.123749	
-0.123444	
-0.123138	
-0.122681	
-0.12207	
-0.12207	
-0.121613	
-0.121307	
-0.121765	
-0.12207	
-0.12207	
-0.12207	
-0.122375	
-0.123138	
-0.123596	
-0.124207	
-0.124664	
-0.125122	
-0.126038	
-0.126801	
-0.127411	
-0.128174	
-0.128784	
-0.129547	
-0.130157	
-0.13031	
-0.13092	
-0.13092	
-0.13092	
-0.13092	
-0.131226	
-0.13092	
-0.130463	
-0.129852	
-0.129395	
-0.128326	
-0.127411	
-0.126343	
-0.125122	
-0.124054	
-0.122223	
-0.120392	
-0.118408	
-0.11673	
-0.114441	
-0.112762	
-0.110321	
-0.108032	
-0.105743	
-0.104218	
-0.101929	
-0.0999451	
-0.0979614	
-0.0961304	
-0.0946045	
-0.0932312	
-0.0923157	
-0.0915527	
-0.090332	
-0.0898743	
-0.0897217	
-0.0900269	
-0.0900269	
-0.0907898	
-0.0915527	
-0.0927734	
-0.0942993	
-0.09552	
-0.0970459	
-0.098877	
-0.100555	
-0.102081	
-0.104065	
-0.105896	
-0.107269	
-0.108948	
-0.110321	
-0.111542	
-0.112915	
-0.113373	
-0.113983	
-0.114899	
-0.114899	
-0.114746	
-0.114746	
-0.114288	
-0.113678	
-0.112915	
-0.112	
-0.110779	
-0.108948	
-0.107727	
-0.106201	
-0.10437	
-0.102539	
-0.100861	
-0.0985718	
-0.0964355	
-0.0944519	
-0.0923157	
-0.0901794	
-0.0883484	
-0.0860596	
-0.0845337	
-0.0828552	
-0.0811768	
-0.0793457	
-0.078125	
-0.0767517	
-0.0753784	
-0.0746155	
-0.0733948	
-0.0726318	
-0.0721741	
-0.0718689	
-0.071106	
-0.071106	
-0.0712585	
-0.071106	
-0.0712585	
-0.0720215	
-0.0723267	
-0.0737	
-0.0744629	
-0.0752258	
-0.0762939	
-0.0773621	
-0.0784302	
-0.0796509	
-0.0805664	
-0.0820923	
-0.0831604	
-0.0842285	
-0.0854492	
-0.0866699	
-0.0872803	
-0.0888062	
-0.0894165	
-0.0904846	
-0.0920105	
-0.0927734	
-0.093689	
-0.0947571	
-0.0956726	
-0.0965881	
-0.0973511	
-0.0979614	
-0.0984192	
-0.0990295	
-0.0993347	
-0.0993347	
-0.0996399	
-0.0994873	
-0.0996399	
-0.098877	
-0.0984192	
-0.0982666	
-0.0973511	
-0.096283	
-0.0956726	
-0.0946045	
-0.0935364	
-0.0920105	
-0.0915527	
-0.0895691	
-0.0886536	
-0.0869751	
-0.0854492	
-0.0837708	
-0.0822449	
-0.080719	
-0.0787354	
-0.0770569	
-0.0753784	
-0.0733948	
-0.0720215	
-0.0704956	
-0.0683594	
-0.0669861	
-0.0654602	
-0.0639343	
-0.062561	
-0.0616455	
-0.0604248	
-0.0592041	
-0.0582886	
-0.0576782	
-0.0569153	
-0.0561523	
-0.0556946	
-0.0550842	
-0.0546265	
-0.0543213	
-0.0540161	
-0.0538635	
-0.0537109	
-0.052948	
-0.0531006	
-0.0526428	
-0.0526428	
-0.0523376	
-0.0517273	
-0.0518799	
-0.0512695	
-0.0505066	
-0.0495911	
-0.0488281	
-0.0482178	
-0.0473022	
-0.0465393	
-0.045166	
-0.0439453	
-0.0424194	
-0.0410461	
-0.0396729	
-0.0379944	
-0.0363159	
-0.0346375	
-0.0331116	
-0.0314331	
-0.0302124	
-0.0285339	
-0.0274658	
-0.0262451	
-0.0250244	
-0.0238037	
-0.0233459	
-0.0230408	
-0.0224304	
-0.022583	
-0.022583	
-0.0231934	
-0.0239563	
-0.0248718	
-0.0260925	
-0.0276184	
-0.0297546	
-0.0315857	
-0.0337219	
-0.035553	
-0.0382996	
-0.0408936	
-0.0434875	
-0.0457764	
-0.0486755	
-0.0514221	
-0.0540161	
-0.0564575	
-0.0584412	
-0.0610352	
-0.0627136	
-0.0640869	
-0.0653076	
-0.0666809	
-0.0672913	
-0.067749	
-0.0674438	
-0.0669861	
-0.0663757	
-0.0654602	
-0.0637817	
-0.0614929	
-0.0595093	
-0.0561523	
-0.0532532	
-0.0491333	
-0.045166	
-0.0402832	
-0.0358582	
-0.0306702	
-0.0253296	
-0.0198364	
-0.0137329	
-0.00823975	
-0.00244141	
0.00350952	
0.00915527	
0.0149536	
0.020752	
0.0259399	
0.0314331	
0.0360107	
0.0404358	
0.0450134	
0.0494385	
0.0532532	
0.0572205	
0.0605774	
0.0636292	
0.0671387	
0.0697327	
0.0723267	
0.0749207	
0.0773621	
0.0794983	
0.0813293	
0.0831604	
0.0849915	
0.0868225	
0.088501	
0.0900269	
0.0915527	
0.0926208	
0.0939941	
0.09552	
0.0968933	
0.098114	
0.0990295	
0.100403	
0.101776	
0.102997	
0.103912	
0.104828	
0.106201	
0.106964	
0.108032	
0.10849	
0.109406	
0.110168	
0.110168	
0.110321	
0.110474	
0.110779	
0.110474	
0.110321	
0.1091	
0.10849	
0.10788	
0.106812	
0.105743	
0.104523	
0.103455	
0.102386	
0.101166	
0.0997925	
0.0984192	
0.0971985	
0.0964355	
0.0953674	
0.0939941	
0.0932312	
0.0921631	
0.0914001	
0.0907898	
0.0898743	
0.0897217	
0.0894165	
0.0891113	
0.0892639	
0.0897217	
0.0895691	
0.0900269	
0.091095	
0.0914001	
0.0923157	
0.0930786	
0.0942993	
0.0953674	
0.096283	
0.0970459	
0.098114	
0.0987244	
0.0991821	
0.0996399	
0.0994873	
0.0996399	
0.0991821	
0.098877	
0.098114	
0.0968933	
0.0958252	
0.0946045	
0.0924683	
0.0904846	
0.0883484	
0.0857544	
0.083313	
0.0804138	
0.0776672	
0.0743103	
0.0709534	
0.0671387	
0.0637817	
0.0601196	
0.0558472	
0.0515747	
0.0473022	
0.043335	
0.0396729	
0.0349426	
0.0309753	
0.0271606	
0.0227356	
0.018158	
0.0143433	
0.0102234	
0.00579834	
0.00106812	
-0.00274658	
-0.00732422	
-0.0112915	
-0.015564	
-0.0198364	
-0.0242615	
-0.0282288	
-0.0325012	
-0.0364685	
-0.040741	
-0.0447083	
-0.0491333	
-0.0531006	
-0.0572205	
-0.0611877	
-0.0653076	
-0.0695801	
-0.0735474	
-0.0776672	
-0.0817871	
-0.0862122	
-0.0904846	
-0.0947571	
-0.0985718	
-0.102539	
-0.106659	
-0.110016	
-0.113525	
-0.11673	
-0.119781	
-0.122833	
-0.12558	
-0.127716	
-0.129395	
-0.131531	
-0.133057	
-0.134583	
-0.135498	
-0.135803	
-0.136719	
-0.137177	
-0.137634	
-0.137634	
-0.137329	
-0.137482	
-0.137329	
-0.137329	
-0.137024	
-0.136719	
-0.136414	
-0.136261	
-0.136108	
-0.136261	
-0.136108	
-0.135956	
-0.136414	
-0.136414	
-0.136566	
-0.137329	
-0.137482	
-0.137939	
-0.138397	
-0.13916	
-0.139618	
-0.140076	
-0.140533	
-0.141144	
-0.141907	
-0.142365	
-0.142975	
-0.14328	
-0.14389	
-0.144653	
-0.144348	
-0.144958	
-0.145416	
-0.145111	
-0.145111	
-0.144196	
-0.144196	
-0.143585	
-0.142822	
-0.141907	
-0.140533	
-0.139618	
-0.137939	
-0.135956	
-0.133972	
-0.132141	
-0.1297	
-0.127258	
-0.124664	
-0.121765	
-0.119476	
-0.116425	
-0.113831	
-0.111084	
-0.10849	
-0.105896	
-0.103455	
-0.100861	
-0.098877	
-0.0964355	
-0.0949097	
-0.0935364	
-0.0918579	
-0.0907898	
-0.0897217	
-0.0891113	
-0.0892639	
-0.0888062	
-0.0895691	
-0.0904846	
-0.0912476	
-0.0926208	
-0.0946045	
-0.0965881	
-0.0990295	
-0.101624	
-0.104218	
-0.107117	
-0.110626	
-0.114288	
-0.11795	
-0.121918	
-0.125885	
-0.130005	
-0.134277	
-0.138245	
-0.142365	
-0.146484	
-0.150452	
-0.153656	
-0.157318	
-0.160675	
-0.163727	
-0.166473	
-0.169067	
-0.171204	
-0.172729	
-0.174255	
-0.175323	
-0.176086	
-0.176544	
-0.176697	
-0.176239	
-0.175781	
-0.174561	
-0.173492	
-0.171967	
-0.169983	
-0.168152	
-0.165863	
-0.164185	
-0.161591	
-0.159607	
-0.157471	
-0.155182	
-0.153503	
-0.15213	
-0.150452	
-0.149231	
-0.148468	
-0.148163	
-0.1474	
-0.1474	
-0.147247	
-0.147552	
-0.14801	
-0.148468	
-0.149231	
-0.150299	
-0.151215	
-0.152435	
-0.152893	
-0.154114	
-0.154572	
-0.155029	
-0.155182	
-0.155029	
-0.154266	
-0.153198	
-0.151672	
-0.148773	
-0.145874	
-0.141449	
-0.136414	
-0.130768	
-0.123749	
-0.116119	
-0.106812	
-0.0976563	
-0.0863647	
-0.0743103	
-0.0610352	
-0.0468445	
-0.0309753	
-0.0144958	
0.00335693	
0.022583	
0.0422668	
0.063324	
0.085907	
0.109253	
0.13382	
0.159149	
0.186157	
0.213318	
0.241699	
0.270996	
0.300446	
0.330963	
0.362091	
0.393524	
0.42572	
0.457916	
0.490723	
0.52475	
0.558777	
0.593567	
0.62851	
0.664215	
0.700073	
0.737	
0.774231	
0.811768	
0.85022	
0.888672	
0.927124	
0.965576	
1.00357	
1.04187	
1.07971	
1.11633	
1.15234	
1.18683	
1.22086	
1.25259	
1.28296	
1.31119	
1.33743	
1.36108	
1.38275	
1.40121	
1.41724	
1.4296	
1.4389	
1.44455	
1.44653	
1.44455	
1.43875	
1.42853	
1.41418	
1.39557	
1.37222	
1.3446	
1.31271	
1.27686	
1.23642	
1.19156	
1.14273	
1.08978	
1.03424	
0.974274	
0.91217	
0.846558	
0.779114	
0.708923	
0.63736	
0.564728	
0.490417	
0.415649	
0.341034	
0.265961	
0.191803	
0.119019	
0.0473022	
-0.022583	
-0.0904846	
-0.155945	
-0.218964	
-0.278931	
-0.335541	
-0.388947	
-0.438843	
-0.484772	
-0.526276	
-0.564423	
-0.597992	
-0.627747	
-0.652618	
-0.673828	
-0.691071	
-0.704193	
-0.713501	
-0.718536	
-0.72052	
-0.718842	
-0.714264	
-0.706787	
-0.696259	
-0.682983	
-0.66803	
-0.65094	
-0.632019	
-0.611877	
-0.59021	
-0.567932	
-0.544586	
-0.520782	
-0.496826	
-0.472565	
-0.448914	
-0.42511	
-0.401611	
-0.379333	
-0.357819	
-0.336609	
-0.316925	
-0.298157	
-0.280457	
-0.263977	
-0.248566	
-0.234833	
-0.222321	
-0.211029	
-0.200806	
-0.191803	
-0.184021	
-0.177002	
-0.171204	
-0.166473	
-0.162811	
-0.160065	
-0.158081	
-0.15686	
-0.156097	
-0.156555	
-0.156708	
-0.158234	
-0.159454	
-0.161133	
-0.162964	
-0.164948	
-0.167694	
-0.170288	
-0.172729	
-0.174866	
-0.177307	
-0.179596	
-0.18158	
-0.183563	
-0.185394	
-0.187073	
-0.188599	
-0.189667	
-0.190735	
-0.191498	
-0.192108	
-0.192719	
-0.193024	
-0.193329	
-0.193634	
-0.193634	
-0.193634	
-0.193481	
-0.193176	
-0.192871	
-0.192108	
-0.191956	
-0.191193	
-0.19104	
-0.190277	
-0.189209	
-0.188599	
-0.187988	
-0.187073	
-0.186768	
-0.186005	
-0.184937	
-0.184326	
-0.183258	
-0.182648	
-0.182037	
-0.181427	
-0.180359	
-0.179901	
-0.178986	
-0.178223	
-0.177917	
-0.177002	
-0.176544	
-0.175629	
-0.175171	
-0.174103	
-0.173798	
-0.173035	
-0.172424	
-0.171814	
-0.171051	
-0.170441	
-0.169525	
-0.16922	
-0.168304	
-0.167694	
-0.166626	
-0.165558	
-0.16449	
-0.163879	
-0.163269	
-0.162201	
-0.161591	
-0.160675	
-0.15976	
-0.159149	
-0.158081	
-0.157166	
-0.156555	
-0.15564	
-0.154724	
-0.154266	
-0.153198	
-0.15274	
-0.151062	
-0.150604	
-0.149536	
-0.148621	
-0.147552	
-0.146637	
-0.145111	
-0.14328	
-0.141907	
-0.140381	
-0.139008	
-0.137329	
-0.135345	
-0.133362	
-0.131226	
-0.129547	
-0.127411	
-0.125732	
-0.123596	
-0.121307	
-0.119324	
-0.117188	
-0.114746	
-0.11261	
-0.110321	
-0.108032	
-0.105743	
-0.103607	
-0.101624	
-0.0996399	
-0.0975037	
-0.0959778	
-0.0944519	
-0.0923157	
-0.0909424	
-0.0897217	
-0.0886536	
-0.087738	
-0.0869751	
-0.085907	
-0.0857544	
-0.0857544	
-0.085144	
-0.0854492	
-0.0856018	
-0.085907	
-0.0862122	
-0.0866699	
-0.0875854	
-0.087738	
-0.088501	
-0.0892639	
-0.0898743	
-0.0904846	
-0.0909424	
-0.0915527	
-0.0917053	
-0.0924683	
-0.0926208	
-0.0926208	
-0.0926208	
-0.0923157	
-0.0914001	
-0.0909424	
-0.0900269	
-0.0892639	
-0.0878906	
-0.0865173	
-0.0845337	
-0.0827026	
-0.0805664	
-0.078125	
-0.0750732	
-0.0726318	
-0.0695801	
-0.0665283	
-0.0630188	
-0.0592041	
-0.0556946	
-0.0521851	
-0.0476074	
-0.0442505	
-0.0404358	
-0.0363159	
-0.0323486	
-0.0288391	
-0.0250244	
-0.0216675	
-0.0183105	
-0.0149536	
-0.0115967	
-0.00823975	
-0.00488281	
-0.00244141	
0.0012207	
0.00350952	
0.00671387	
0.00915527	
0.012207	
0.014801	
0.0180054	
0.0202942	
0.0230408	
0.0256348	
0.027771	
0.0308228	
0.0334167	
0.0358582	
0.0384521	
0.0404358	
0.0431824	
0.0457764	
0.0485229	
0.0509644	
0.0541687	
0.0566101	
0.0592041	
0.0624084	
0.0653076	
0.0683594	
0.071106	
0.0740051	
0.0764465	
0.0790405	
0.0814819	
0.0834656	
0.0860596	
0.0878906	
0.0898743	
0.0918579	
0.093689	
0.0958252	
0.0965881	
0.0984192	
0.0994873	
0.101318	
0.102539	
0.103607	
0.104523	
0.105591	
0.106659	
0.108032	
0.10849	
0.110016	
0.110779	
0.111542	
0.112915	
0.113678	
0.115509	
0.116425	
0.118256	
0.119934	
0.121613	
0.123444	
0.12558	
0.128479	
0.130615	
0.133209	
0.136719	
0.139465	
0.142975	
0.14679	
0.150604	
0.154572	
0.158386	
0.162811	
0.167389	
0.171509	
0.176086	
0.181274	
0.185547	
0.190125	
0.194702	
0.199585	
0.204315	
0.208893	
0.21347	
0.218201	
0.222931	
0.227203	
0.232239	
0.236053	
0.240479	
0.244751	
0.248718	
0.252838	
0.256958	
0.260315	
0.263824	
0.267639	
0.271301	
0.274506	
0.277863	
0.280914	
0.283813	
0.286865	
0.29007	
0.292358	
0.295105	
0.298004	
0.300293	
0.302734	
0.305176	
0.307159	
0.309143	
0.311432	
0.312805	
0.314178	
0.316162	
0.317688	
0.318756	
0.320129	
0.321198	
0.322266	
0.322876	
0.323486	
0.32486	
0.324707	
0.325623	
0.325317	
0.325928	
0.325623	
0.325775	
0.325317	
0.325623	
0.32486	
0.324707	
0.324554	
0.323944	
0.323639	
0.322723	
0.321808	
0.321045	
0.320129	
0.318756	
0.317841	
0.316315	
0.314941	
0.314026	
0.312805	
0.311432	
0.310211	
0.308838	
0.307007	
0.305328	
0.304108	
0.301666	
0.299683	
0.296936	
0.293884	
0.29129	
0.287628	
0.284119	
0.280151	
0.275726	
0.271454	
0.266724	
0.261536	
0.256042	
0.250854	
0.245056	
0.238495	
0.232697	
0.225525	
0.219116	
0.211945	
0.204773	
0.197296	
0.189667	
0.182343	
0.174408	
0.166473	
0.158997	
0.150604	
0.142517	
0.134735	
0.12619	
0.118408	
0.110321	
0.102081	
0.0942993	
0.0865173	
0.0788879	
0.0715637	
0.0640869	
0.0570679	
0.0498962	
0.0431824	
0.0366211	
0.0306702	
0.0248718	
0.0187683	
0.0131226	
0.00808716	
0.00335693	
-0.00137329	
-0.00595093	
-0.00991821	
-0.0141907	
-0.0180054	
-0.0209045	
-0.0244141	
-0.0274658	
-0.0308228	
-0.0335693	
-0.0360107	
-0.0389099	
-0.0411987	
-0.0439453	
-0.0463867	
-0.0486755	
-0.0511169	
-0.0537109	
-0.0558472	
-0.0582886	
-0.0610352	
-0.0627136	
-0.0646973	
-0.0669861	
-0.0688171	
-0.071106	
-0.0724792	
-0.0740051	
-0.0761414	
-0.0776672	
-0.0791931	
-0.0810242	
-0.0828552	
-0.0839233	
-0.0857544	
-0.0872803	
-0.0886536	
-0.0904846	
-0.0915527	
-0.093689	
-0.0946045	
-0.0959778	
-0.0975037	
-0.098877	
-0.100403	
-0.101471	
-0.103149	
-0.104065	
-0.105591	
-0.106964	
-0.108032	
-0.109406	
-0.110626	
-0.112457	
-0.113678	
-0.114899	
-0.116577	
-0.117645	
-0.119324	
-0.12085	
-0.122223	
-0.124054	
-0.12558	
-0.127258	
-0.128784	
-0.13092	
-0.132141	
-0.134125	
-0.135498	
-0.136719	
-0.13855	
-0.139771	
-0.141144	
-0.142212	
-0.143127	
-0.14389	
-0.144806	
-0.145264	
-0.145569	
-0.145874	
-0.145569	
-0.145874	
-0.145416	
-0.145264	
-0.144806	
-0.144196	
-0.143127	
-0.142212	
-0.141296	
-0.140533	
-0.139008	
-0.138092	
-0.136566	
-0.135651	
-0.134277	
-0.132751	
-0.131683	
-0.13031	
-0.129395	
-0.128326	
-0.127869	
-0.126953	
-0.12619	
-0.125885	
-0.125732	
-0.125275	
-0.125885	
-0.12558	
-0.12619	
-0.126495	
-0.126648	
-0.127716	
-0.128479	
-0.128937	
-0.1297	
-0.130615	
-0.131989	
-0.132904	
-0.13382	
-0.134735	
-0.135345	
-0.136414	
-0.137177	
-0.137634	
-0.137939	
-0.138397	
-0.13855	
-0.139008	
-0.13855	
-0.138397	
-0.137939	
-0.137329	
-0.136719	
-0.135651	
-0.13504	
-0.133514	
-0.132294	
-0.130615	
-0.129089	
-0.127563	
-0.125885	
-0.124359	
-0.12207	
-0.120392	
-0.118866	
-0.117188	
-0.115356	
-0.113831	
-0.112305	
-0.111084	
-0.110168	
-0.108948	
-0.108643	
-0.108032	
-0.107727	
-0.107269	
-0.107269	
-0.10788	
-0.108185	
-0.108795	
-0.109711	
-0.110016	
-0.111542	
-0.112305	
-0.113678	
-0.114899	
-0.116272	
-0.11795	
-0.119019	
-0.120392	
-0.121918	
-0.122223	
-0.123444	
-0.123901	
-0.124817	
-0.125427	
-0.12558	
-0.125885	
-0.125732	
-0.12558	
-0.125275	
-0.124359	
-0.123596	
-0.122375	
-0.121307	
-0.119629	
-0.118256	
-0.115967	
-0.113983	
-0.112	
-0.109558	
-0.107574	
-0.105286	
-0.102997	
-0.100861	
-0.0987244	
-0.0968933	
-0.0947571	
-0.0933838	
-0.0915527	
-0.0897217	
-0.0878906	
-0.0862122	
-0.085144	
-0.0840759	
-0.0828552	
-0.0822449	
-0.0813293	
-0.0813293	
-0.0805664	
-0.0811768	
-0.0811768	
-0.0814819	
-0.0817871	
-0.0823975	
-0.0836182	
-0.0842285	
-0.0854492	
-0.0865173	
-0.0874329	
-0.0891113	
-0.0906372	
-0.0918579	
-0.0927734	
-0.0946045	
-0.0958252	
-0.0970459	
-0.0984192	
-0.0996399	
-0.100708	
-0.101776	
-0.103149	
-0.10376	
-0.10498	
-0.105591	
-0.106049	
-0.106812	
-0.107117	
-0.108185	
-0.108795	
-0.109253	
-0.109558	
-0.110321	
-0.110779	
-0.111084	
-0.111084	
-0.111847	
-0.112152	
-0.112915	
-0.112915	
-0.112915	
-0.113373	
