Name
Date of Birth,"Dec 28, 2003"
Recorded Date,2024-09-19 09:59:46 -0500
Classification,Poor Recording
Symptoms,
Software Version,1.90
Device,"Watch4,4"
Sample Rate,512.711 hertz


Lead,Lead I
Unit,µV

-18.921
-13.522
-8.312
-3.3
1.499
6.09
10.495
14.736
18.832
22.786
26.585
30.205
33.609
36.763
39.637
42.205
44.455
46.383
47.993
49.3
50.325
51.088
51.603
51.885
51.947
51.805
51.478
50.982
50.336
49.56
48.677
47.711
46.692
45.637
44.559
43.469
42.368
41.252
40.111
38.923
37.662
36.318
34.886
33.37
31.793
30.17
28.518
26.86
25.199
23.543
21.906
20.292
18.714
17.203
15.798
14.562
13.568
12.855
12.445
12.341
12.509
12.915
13.515
14.242
15.061
15.932
16.806
17.654
18.423
19.036
19.405
19.407
18.911
17.828
16.095
13.672
10.575
6.815
2.426
-2.53
-8.029
-14.031
-20.48
-27.336
-34.517
-41.912
-49.389
-56.775
-63.888
-70.591
-76.763
-82.315
-87.199
-91.36
-94.761
-97.384
-99.178
-100.111
-100.173
-99.348
-97.665
-95.189
-92.008
-88.258
-84.077
-79.569
-74.827
-69.923
-64.9
-59.82
-54.733
-49.681
-44.736
-39.956
-35.385
-31.075
-27.043
-23.279
-19.759
-16.421
-13.205
-10.078
-7.012
-3.998
-1.04
1.867
4.725
7.523
10.274
12.983
15.655
18.301
20.917
23.486
25.984
28.371
30.61
32.674
34.547
36.218
37.683
38.939
39.987
40.838
41.495
41.962
42.24
42.329
42.23
41.951
41.501
40.893
40.14
39.253
38.242
37.117
35.884
34.549
33.117
31.589
29.965
28.249
26.446
24.561
22.599
20.564
18.462
16.299
14.081
11.812
9.497
7.141
4.749
2.326
-0.122
-2.591
-5.073
-7.563
-10.055
-12.542
-15.017
-17.473
-19.903
-22.299
-24.653
-26.959
-29.208
-31.392
-33.506
-35.541
-37.488
-39.341
-41.092
-42.733
-44.258
-45.659
-46.93
-48.065
-49.059
-49.91
-50.615
-51.171
-51.577
-51.832
-51.935
-51.887
-51.689
-51.342
-50.849
-50.212
-49.436
-48.528
-47.495
-46.344
-45.085
-43.73
-42.291
-40.778
-39.204
-37.578
-35.911
-34.215
-32.501
-30.779
-29.055
-27.34
-25.643
-23.975
-22.346
-20.765
-19.236
-17.766
-16.361
-15.033
-13.788
-12.629
-11.56
-10.585
-9.715
-8.972
-8.37
-7.916
-7.615
-7.467
-7.473
-7.634
-7.933
-8.334
-8.796
-9.278
-9.753
-10.216
-10.647
-11.023
-11.318
-11.493
-11.531
-11.43
-11.159
-10.694
-10.032
-9.185
-8.237
-7.315
-6.527
-6.003
-5.881
-6.213
-6.999
-8.154
-9.464
-10.734
-11.832
-12.58
-12.797
-12.463
-11.77
-11.173
-11.364
-12.936
-16.17
-21.246
-28.384
-37.523
-48.077
-58.905
-68.251
-74.276
-75.679
-71.328
-59.957
-40.713
-13.261
21.938
63.24
108.649
155.774
201.945
245.045
282.504
312.868
335.24
346.398
344.661
328.758
297.595
255.23
204.336
145.193
80.166
10.671
-58.234
-115.5
-152.638
-166.245
-157.504
-134.297
-104.536
-70.874
-35.103
1.385
35.837
62.426
77.209
80.92
79.494
80.309
87.53
101.952
119.034
133.693
147.051
161.318
180.599
209.955
245.823
282.375
314.846
336.782
349.062
356.904
363.515
373.083
386.107
399.261
410.961
420.031
426.211
430.945
434.874
438.119
440.957
443.263
445.076
446.659
447.975
449.603
452.116
454.899
457.753
459.396
458.275
455.979
453.544
452.537
455.125
459.179
462.865
464.922
463.36
459.499
454.698
449.216
443.855
438.104
431.324
423.634
414.962
405.363
394.984
383.789
371.772
359.022
345.635
331.69
317.262
302.425
287.229
271.714
255.925
239.879
223.586
207.075
190.356
173.417
156.26
138.887
121.285
103.453
85.354
66.915
48.089
28.845
9.184
-10.84
-31.178
-51.779
-72.564
-93.447
-114.308
-134.984
-155.344
-175.29
-194.714
-213.518
-231.563
-248.664
-264.675
-279.485
-293.021
-305.263
-316.196
-325.804
-334.127
-341.241
-347.259
-352.345
-356.62
-360.164
-363.068
-365.412
-367.31
-368.914
-370.336
-371.655
-372.932
-374.202
-375.497
-376.854
-378.265
-379.679
-381.028
-382.213
-383.171
-383.877
-384.301
-384.42
-384.205
-383.612
-382.625
-381.254
-379.505
-377.387
-374.91
-372.075
-368.91
-365.464
-361.788
-357.939
-353.966
-349.898
-345.768
-341.606
-337.441
-333.302
-329.21
-325.175
-321.212
-317.341
-313.579
-309.945
-306.454
-303.119
-299.957
-296.989
-294.236
-291.71
-289.429
-287.397
-285.618
-284.087
-282.787
-281.697
-280.81
-280.123
-279.643
-279.396
-279.4
-279.678
-280.256
-281.142
-282.344
-283.878
-285.746
-287.957
-290.543
-293.542
-297.022
-301.063
-305.705
-310.965
-316.837
-323.266
-330.191
-337.527
-345.157
-352.987
-360.936
-368.917
-376.875
-384.747
-392.438
-399.845
-406.833
-413.244
-418.963
-423.907
-428.008
-431.263
-433.687
-435.33
-436.298
-436.674
-436.513
-435.867
-434.756
-433.192
-431.22
-428.883
-426.241
-423.381
-420.364
-417.233
-414.03
-410.748
-407.361
-403.818
-400.022
-395.887
-391.364
-386.409
-381.004
-375.146
-368.818
-362.012
-354.727
-346.944
-338.652
-329.849
-320.525
-310.696
-300.393
-289.659
-278.56
-267.161
-255.511
-243.654
-231.629
-219.465
-207.194
-194.843
-182.433
-169.989
-157.546
-145.135
-132.795
-120.56
-108.455
-96.506
-84.731
-73.148
-61.773
-50.623
-39.715
-29.071
-18.71
-8.655
1.072
10.454
19.477
28.133
36.419
44.333
51.881
59.07
65.907
72.394
78.531
84.309
89.73
94.809
99.559
104
108.159
112.067
115.768
119.317
122.748
126.089
129.359
132.562
135.719
138.861
142.014
145.218
148.508
151.896
155.407
159.057
162.83
166.711
170.65
174.561
178.396
182.11
185.645
189.007
192.177
195.067
197.675
200.043
202.27
204.629
207.366
210.619
214.581
219.502
225.505
232.455
239.82
246.799
252.602
257.072
260.665
262.989
263.498
261.362
254.998
246.402
239.935
239.995
252.251
277.505
311.685
350.885
390.067
426.664
461.448
493.416
520.632
540.773
550.477
547.732
531.946
502.682
460.743
408.654
348.743
283.264
214.111
141.786
69.65
3.712
-50.471
-87.279
-105.91
-110.384
-104.432
-92.632
-77.837
-60.131
-40.744
-21.178
-3.054
11.108
19.499
22.167
19.996
13.673
4.543
-7.252
-21.755
-36.198
-48.519
-56.302
-57.798
-55.863
-52.152
-48.395
-45.875
-42.158
-38.066
-34.711
-33.035
-35.8
-41.13
-46.695
-50.978
-51.674
-50.078
-47.759
-45.156
-43.212
-41.454
-39.301
-36.978
-34.454
-31.8
-29.17
-26.486
-23.732
-21.023
-18.426
-15.982
-13.731
-11.689
-9.871
-8.324
-7.078
-6.1
-5.359
-4.838
-4.525
-4.458
-4.675
-5.148
-5.85
-6.871
-8.335
-10.233
-12.571
-15.321
-18.274
-21.93
-26.707
-31.773
-36.786
-40.451
-41.327
-41.223
-40.881
-41.011
-43.534
-47.055
-52.083
-60.668
-72.256
-86.515
-100.614
-109.965
-112.401
-108.879
-102.685
-97.429
-96.801
-101.011
-108.571
-119.104
-129.625
-138.678
-146.152
-150.608
-153.43
-156.007
-158.567
-162.058
-166.117
-170.111
-174.147
-178.151
-182.174
-186.351
-190.579
-194.761
-198.903
-203.016
-207.11
-211.198
-215.287
-219.387
-223.516
-227.695
-231.927
-236.207
-240.539
-244.924
-249.361
-253.853
-258.399
-262.994
-267.638
-272.328
-277.06
-281.829
-286.628
-291.451
-296.289
-301.133
-305.973
-310.799
-315.604
-320.375
-325.102
-329.77
-334.365
-338.872
-343.276
-347.562
-351.715
-355.72
-359.563
-363.233
-366.721
-370.018
-373.116
-376.002
-378.662
-381.082
-383.259
-385.187
-386.87
-388.312
-389.515
-390.48
-391.214
-391.722
-392.005
-392.062
-391.88
-391.452
-390.772
-389.844
-388.688
-387.316
-385.726
-383.899
-381.796
-379.385
-376.663
-373.634
-370.312
-366.719
-362.843
-358.706
-354.4
-349.945
-345.304
-340.378
-334.913
-328.725
-321.891
-314.526
-306.787
-299.054
-291.68
-285.099
-280.088
-277.192
-276.448
-277.701
-280.448
-283.809
-287.097
-289.643
-290.508
-289.026
-285.004
-278.486
-269.955
-260.271
-250.116
-239.95
-230.034
-220.589
-211.709
-203.235
-195.675
-189.267
-183.211
-177.782
-172.404
-165.987
-160.829
-157.93
-158.191
-164.18
-173.517
-184.556
-196.37
-204.551
-208.528
-207.307
-199.071
-187.024
-172.958
-158.633
-147.073
-137.417
-129.084
-122.587
-117.151
-113.194
-111.022
-109.699
-108.804
-108.088
-107.136
-105.808
-104.058
-101.748
-98.94
-95.951
-92.947
-89.982
-87.112
-84.299
-81.513
-78.829
-76.31
-73.906
-71.561
-69.129
-66.354
-63.182
-59.735
-56.144
-52.583
-49.263
-46.357
-44.311
-43.855
-45.321
-48.623
-53.411
-59.026
-64.907
-70.695
-75.698
-78.902
-79.762
-78.188
-74.562
-69.8
-64.571
-59.22
-54.306
-50.554
-48.389
-47.959
-48.962
-50.611
-52.354
-53.943
-55.106
-55.599
-55.257
-53.983
-51.908
-49.416
-46.8
-44.194
-41.681
-39.246
-36.884
-34.67
-32.601
-30.582
-28.491
-26.164
-23.42
-20.164
-16.321
-11.745
-6.472
-0.687
5.322
11.108
16.209
20.115
22.536
23.466
23.161
22.874
24.02
27.193
33.572
43.263
55.839
73.477
97.063
127.46
165.807
208.294
250.816
289.449
319.258
338.828
347.456
343.584
327.218
299.068
260.344
213.46
159.656
97.851
28.62
-44.037
-112.727
-166.541
-196.932
-202.024
-184.091
-149.492
-107.174
-63.542
-25.41
0.425
13.194
14.321
8.638
5.089
7.842
17.824
33.937
51.485
67.993
83.303
97.444
111.371
125.274
138.298
149.773
159.357
166.999
172.908
177.32
180.36
182.142
182.832
182.646
181.808
180.522
178.978
177.295
175.56
173.872
172.318
170.989
169.981
169.343
169.088
169.223
169.737
170.607
171.804
173.249
174.819
176.393
177.839
179.066
180.026
180.67
180.96
180.86
180.332
179.362
177.956
176.116
173.844
171.148
168.034
164.534
160.699
156.584
152.249
147.742
143.092
138.328
133.475
128.553
123.581
118.571
113.526
108.458
103.379
98.305
93.256
88.242
83.269
78.343
73.47
68.653
63.902
59.223
54.623
50.11
45.695
41.388
37.2
33.141
29.216
25.429
21.784
18.282
14.925
11.713
8.647
5.724
2.944
0.308
-2.187
-4.54
-6.754
-8.831
-10.774
-12.585
-14.268
-15.826
-17.264
-18.584
-19.79
-20.887
-21.877
-22.763
-23.548
-24.237
-24.83
-25.332
-25.745
-26.071
-26.314
-26.475
-26.556
-26.558
-26.483
-26.332
-26.104
-25.802
-25.424
-24.973
-24.448
-23.852
-23.186
-22.451
-21.65
-20.785
-19.857
-18.87
-17.827
-16.732
-15.588
-14.399
-13.17
-11.908
-10.616
-9.303
-7.975
-6.638
-5.301
-3.972
-2.658
-1.369
-0.114
1.099
2.258
3.355
4.38
5.322
6.173
6.921
7.559
8.076
8.465
8.717
8.825
8.782
8.583
8.22
7.691
6.992
6.121
5.075
3.855
2.462
0.898
-0.835
-2.731
-4.786
-6.994
-9.346
-11.836
-14.452
-17.185
-20.023
-22.953
-25.964
-29.041
-32.171
-35.339
-38.53
-41.73
-44.923
-48.095
-51.231
-54.316
-57.334
-60.273
-63.118
-65.857
-68.478
-70.971
-73.325
-75.533
-77.588
-79.483
-81.212
-82.774
-84.164
-85.381
-86.426
-87.299
-88.001
-88.538
-88.914
-89.135
-89.209
-89.144
-88.95
-88.636
-88.214
-87.693
-87.085
-86.402
-85.657
-84.861
-84.031
-83.179
-82.321
-81.47
-80.639
-79.843
-79.093
-78.401
-77.777
-77.229
-76.767
-76.398
-76.131
-75.972
-75.927
-76.004
-76.206
-76.54
-77.008
-77.611
-78.348
-79.216
-80.211
-81.329
-82.562
-83.903
-85.342
-86.873
-88.488
-90.178
-91.935
-93.745
-95.598
-97.48
-99.378
-101.28
-103.17
-105.031
-106.85
-108.621
-110.339
-112.007
-113.626
-115.187
-116.687
-118.12
-119.472
-120.724
-121.839
-122.772
-123.492
-123.978
-124.222
-124.229
-123.993
-123.51
-122.781
-121.789
-120.527
-118.987
-117.127
-114.935
-112.436
-109.684
-106.805
-103.949
-101.211
-98.705
-96.535
-94.711
-93.207
-91.91
-90.595
-89.116
-87.398
-85.312
-82.832
-80.101
-77.376
-75.112
-73.798
-73.677
-74.915
-77.72
-82.145
-87.901
-94.225
-99.909
-103.771
-104.898
-102.426
-95.422
-82.983
-64.707
-41.141
-13.586
16.584
47.994
78.975
107.504
131.196
147.826
156.017
155.077
144.315
123.867
95.13
59.888
20.186
-23.27
-71.116
-122.303
-173.322
-217.522
-247.442
-259.962
-255.936
-240.662
-222.402
-205.988
-194.342
-188.26
-184.319
-180.798
-176.918
-171.593
-166.519
-162.513
-158.973
-155.824
-152.092
-147.107
-141.176
-134.492
-127.341
-120.097
-112.975
-106.215
-100.005
-94.37
-89.225
-84.445
-79.906
-75.518
-71.196
-66.83
-62.339
-57.678
-52.817
-47.77
-42.555
-37.169
-31.628
-25.958
-20.183
-14.346
-8.495
-2.669
3.083
8.712
14.171
19.408
24.38
29.062
33.433
37.481
41.203
44.594
47.654
50.397
52.83
54.965
56.817
58.395
59.716
60.8
61.669
62.345
62.852
63.21
63.438
63.556
63.582
63.534
63.429
63.283
63.11
62.928
62.757
62.613
62.515
62.479
62.52
62.653
62.891
63.248
63.732
64.354
65.118
66.034
67.106
68.339
69.735
71.295
73.018
74.904
76.951
79.153
81.506
84
86.628
89.38
92.246
95.215
98.274
101.41
104.609
107.858
111.143
114.448
117.758
121.057
124.33
127.559
130.73
133.827
136.833
139.733
142.512
145.156
147.653
149.989
152.152
154.13
155.917
157.501
158.876
160.032
160.962
161.661
162.126
162.352
162.338
162.083
161.59
160.866
159.917
158.753
157.38
155.804
154.034
152.08
149.951
147.655
145.198
142.584
139.828
136.947
133.965
130.896
127.744
124.504
121.18
117.78
114.312
110.775
107.161
103.468
99.709
95.918
92.128
88.359
84.61
80.866
77.112
73.358
69.632
65.961
62.356
58.82
55.369
52.052
48.932
46.04
43.365
40.85
38.455
36.183
34.057
32.113
30.36
28.765
27.292
25.914
24.618
23.389
22.169
20.839
19.283
17.438
15.299
12.918
10.3
7.388
4.133
0.494
-3.516
-7.835
-12.424
-17.257
-22.287
-27.444
-32.595
-37.533
-42.088
-46.146
-49.613
-52.445
-54.544
-55.752
-55.964
-55.105
-53.151
-50.12
-45.989
-40.731
-34.387
-27.03
-18.788
-9.846
-0.328
9.66
19.97
30.49
41.066
51.519
61.737
71.64
81.154
90.23
98.787
106.748
114.107
120.875
127.076
132.764
137.934
142.603
146.86
150.769
154.399
157.822
161.049
164.08
166.941
169.645
172.207
174.646
176.938
179.066
181.035
182.844
184.521
186.068
187.428
188.561
189.444
190.059
190.425
190.558
190.448
190.102
189.543
188.798
187.905
186.887
185.742
184.459
183.032
181.476
179.831
178.135
176.414
174.69
172.999
171.394
169.94
168.693
167.678
166.895
166.353
166.077
166.096
166.448
167.148
168.179
169.543
171.261
173.34
175.767
178.475
181.32
184.162
186.894
189.407
191.603
193.439
194.915
196.123
197.268
198.545
200.087
202.053
204.607
207.7
211.121
214.493
217.241
218.986
219.626
218.946
216.674
213.012
208.562
204.4
202.107
202.857
207.357
216.612
231.735
253.313
281.398
315.1
352.642
392.47
433.061
472.172
507.219
535.691
555.164
564.086
561.604
546.803
520.281
484.428
441.58
394.527
344.457
290.15
233.346
177.573
128.465
95.033
81.962
90.584
118.718
157.497
198.047
231.773
252.386
260.277
258.657
252.725
247.047
242.83
239.69
235.975
230.547
223.61
215.847
208.65
203.085
199.258
196.827
194.98
192.845
190.11
186.782
182.868
178.376
173.316
167.693
161.685
155.63
149.716
144.023
138.586
133.356
128.319
123.508
118.916
114.499
110.227
106.047
101.922
97.842
93.778
89.71
85.63
81.522
77.38
73.212
69.024
64.834
60.66
56.506
52.371
48.256
44.159
40.091
36.062
32.076
28.144
24.273
20.473
16.755
13.129
9.595
6.154
2.807
-0.449
-3.613
-6.681
-9.651
-12.52
-15.283
-17.937
-20.477
-22.898
-25.198
-27.374
-29.425
-31.35
-33.147
-34.816
-36.354
-37.76
-39.031
-40.165
-41.16
-42.013
-42.724
-43.29
-43.71
-43.981
-44.104
-44.078
-43.901
-43.573
-43.094
-42.463
-41.681
-40.747
-39.665
-38.435
-37.061
-35.546
-33.894
-32.111
-30.203
-28.176
-26.038
-23.797
-21.459
-19.036
-16.536
-13.97
-11.349
-8.684
-5.988
-3.273
-0.552
2.161
4.852
7.509
10.115
12.658
15.123
17.494
19.757
21.898
23.903
25.757
27.446
28.958
30.281
31.402
32.311
32.999
33.456
33.675
33.648
33.372
32.841
32.052
31.004
29.695
28.128
26.303
24.223
21.894
19.32
16.507
13.463
10.196
6.715
3.03
-0.85
-4.911
-9.143
-13.531
-18.063
-22.724
-27.5
-32.375
-37.334
-42.361
-47.441
-52.558
-57.695
-62.838
-67.969
-73.075
-78.138
-83.146
-88.082
-92.932
-97.684
-102.325
-106.84
-111.22
-115.451
-119.523
-123.425
-127.146
-130.676
-134.005
-137.124
-140.022
-142.692
-145.124
-147.31
-149.244
-150.917
-152.323
-153.457
-154.313
-154.887
-155.175
-155.173
-154.879
-154.292
-153.411
-152.237
-150.77
-149.011
-146.965
-144.633
-142.021
-139.133
-135.975
-132.552
-128.872
-124.943
-120.775
-116.377
-111.761
-106.939
-101.925
-96.736
-91.387
-85.897
-80.283
-74.567
-68.768
-62.908
-57.009
-51.094
-45.185
-39.304
-33.475
-27.721
-22.065
-16.529
-11.134
-5.902
-0.854
3.991
8.616
13.001
17.132
20.994
24.571
27.849
30.819
33.468
35.787
37.771
39.414
40.718
41.686
42.325
42.644
42.654
42.367
41.799
40.963
39.874
38.545
36.989
35.223
33.267
31.144
28.872
26.47
23.954
21.343
18.657
15.915
13.138
10.342
7.55
4.793
2.113
-0.441
-2.822
-4.992
-6.923
-8.579
-9.927
-10.932
-11.558
-11.798
-11.66
-11.148
-10.283
-9.091
-7.592
-5.857
-4.003
-2.072
-0.063
2.087
4.554
7.437
10.766
14.654
19.182
24.244
29.619
34.854
39.27
42.411
43.956
43.527
41.067
36.93
31.76
26.626
22.885
21.719
24.29
31.875
45.222
64.333
88.65
117.071
148.085
179.881
210.129
235.962
254.777
264.71
264.422
253.084
230.233
196.597
154.663
107.034
56.14
3.352
-51.55
-105.736
-153.796
-190.691
-211.233
-215.543
-208.775
-195.324
-179.905
-164.651
-148.617
-132.305
-116.278
-101.263
-88.98
-80.063
-74.624
-72.956
-74.454
-78.137
-83.233
-88.775
-94.141
-99.198
-103.606
-106.847
-108.801
-109.593
-109.537
-109.268
-109.106
-109.043
-109.162
-109.567
-110.282
-111.311
-112.503
-113.532
-114.219
-114.537
-114.482
-114.118
-113.5
-112.647
-111.632
-110.571
-109.569
-108.7
-108.016
-107.52
-107.199
-107.057
-107.105
-107.361
-107.859
-108.607
-109.591
-110.795
-112.196
-113.765
-115.481
-117.293
-119.113
-120.884
-122.562
-124.144
-125.693
-127.25
-128.833
-130.467
-132.15
-133.904
-135.784
-137.815
-140.018
-142.429
-145.068
-147.997
-151.342
-155.179
-159.563
-164.515
-169.949
-175.793
-181.995
-188.452
-195.075
-201.748
-208.307
-214.637
-220.656
-226.259
-231.362
-235.85
-239.534
-242.271
-243.935
-244.405
-243.661
-241.689
-238.467
-234.041
-228.478
-221.866
-214.351
-206.039
-196.986
-187.265
-176.93
-166.045
-154.729
-143.08
-131.187
-119.159
-107.059
-94.937
-82.856
-70.826
-58.834
-46.853
-34.818
-22.682
-10.448
1.885
14.301
26.773
39.298
51.861
64.436
77.018
89.593
102.142
114.653
127.092
139.41
151.553
163.449
175.03
186.252
197.074
207.463
217.397
226.852
235.813
244.272
252.217
259.632
266.505
272.82
278.567
283.745
288.353
292.399
295.89
298.835
301.242
303.12
304.477
305.32
305.659
305.498
304.846
303.713
302.112
300.058
297.567
294.655
291.338
287.636
283.567
279.149
274.398
269.335
263.975
258.338
252.443
246.308
239.952
233.394
226.653
219.749
212.698
205.52
198.231
190.849
183.39
175.87
168.304
160.707
153.093
145.477
137.871
130.288
122.739
115.236
107.789
100.406
93.098
85.872
78.736
71.696
64.758
57.927
51.208
44.604
38.118
31.749
25.5
19.368
13.354
7.454
1.667
-4.011
-9.585
-15.06
-20.441
-25.737
-30.955
-36.103
-41.193
-46.233
-51.234
-56.205
-61.157
-66.1
-71.045
-76.001
-80.979
-85.991
-91.048
-96.161
-101.343
-106.606
-111.961
-117.421
-122.997
-128.7
-134.535
-140.511
-146.633
-152.905
-159.333
-165.917
-172.661
-179.566
-186.635
-193.873
-201.282
-208.857
-216.593
-224.483
-232.519
-240.692
-248.992
-257.401
-265.905
-274.497
-283.171
-291.931
-300.775
-309.686
-318.64
-327.61
-336.559
-345.454
-354.26
-362.925
-371.411
-379.692
-387.752
-395.598
-403.236
-410.643
-417.792
-424.641
-431.146
-437.301
-443.104
-448.569
-453.742
-458.672
-463.422
-468.089
-472.746
-477.44
-482.206
-487.008
-491.795
-496.551
-501.243
-505.909
-510.615
-515.275
-519.807
-524.106
-527.962
-531.294
-534.055
-535.939
-536.643
-536.168
-534.502
-531.898
-528.894
-525.528
-521.737
-517.783
-513.818
-509.704
-505.328
-500.022
-492.515
-482.217
-468.784
-452.219
-433.44
-413.495
-392.971
-371.417
-348.519
-325.465
-305.719
-296.352
-303.924
-330.233
-373.385
-427.121
-484.584
-542.977
-599.528
-650.99
-693.905
-722.655
-735.121
-733.44
-720.567
-701.264
-678.295
-651.911
-623.509
-594.406
-566.43
-542.375
-523.795
-511.055
-503.94
-501.199
-501.21
-502.614
-504.004
-504.229
-502.463
-498.129
-491.056
-481.54
-470.214
-457.832
-445.2
-432.856
-421.095
-410.109
-399.902
-390.354
-381.267
-372.315
-363.144
-353.586
-343.63
-333.355
-322.896
-312.341
-301.738
-291.161
-280.719
-270.516
-260.63
-251.119
-242.028
-233.429
-225.427
-218.157
-211.696
-206.057
-201.191
-196.988
-193.368
-190.28
-187.676
-185.52
-183.764
-182.347
-181.231
-180.392
-179.784
-179.348
-178.991
-178.584
-178.046
-177.342
-176.468
-175.47
-174.373
-173.174
-171.88
-170.494
-169.014
-167.439
-165.747
-163.897
-161.862
-159.634
-157.219
-154.649
-151.933
-149.063
-146.018
-142.765
-139.276
-135.539
-131.537
-127.248
-122.664
-117.778
-112.602
-107.159
-101.469
-95.543
-89.393
-83.025
-76.452
-69.693
-62.767
-55.695
-48.501
-41.206
-33.835
-26.414
-18.97
-11.523
-4.093
3.306
10.657
17.942
25.147
32.255
39.254
46.13
52.87
59.46
65.889
72.149
78.232
84.132
89.843
95.364
100.691
105.826
110.769
115.524
120.094
124.483
128.699
132.748
136.638
140.378
143.979
147.449
150.801
154.045
157.193
160.257
163.249
166.178
169.056
171.891
174.695
177.474
180.236
182.987
185.735
188.486
191.244
194.015
196.802
199.608
202.435
205.284
208.155
211.046
213.955
216.879
219.813
222.753
225.694
228.63
231.556
234.465
237.349
240.201
243.011
245.774
248.483
251.131
253.713
256.223
258.656
261.01
263.284
265.479
267.594
269.631
271.591
273.476
275.296
277.057
278.765
280.423
282.028
283.58
285.088
286.56
288.008
289.445
290.88
292.331
293.822
295.381
297.035
298.807
300.704
302.729
304.897
307.238
309.801
312.642
315.788
319.241
322.988
327.024
331.35
335.979
340.875
345.933
351.097
356.408
362.008
368.094
374.744
381.823
389.148
396.648
404.219
411.667
418.626
424.535
429.073
432.44
435.091
437.454
440.023
443.204
447.453
453.572
462.107
472.96
485.726
499.757
514.124
528.195
541.472
553.063
562.264
568.76
572.307
573.167
572.106
569.539
565.728
561.174
556.2
551.109
546.362
541.905
537.269
532.23
526.64
520.372
513.518
506.073
497.912
489.193
480.21
471.159
462.21
453.403
444.65
435.915
427.179
418.409
409.575
400.657
391.662
382.622
373.546
364.402
355.091
345.456
335.381
324.773
313.546
301.74
289.464
276.896
264.313
251.951
239.949
228.405
217.374
206.693
196.058
185.156
173.665
161.399
148.321
134.462
119.865
104.955
90.58
77.572
66.749
58.888
54.643
54.681
59.784
70.157
85.165
104.042
125.906
149.538
173.43
195.625
213.647
225.411
229.756
225.679
212.196
188.97
156.541
116.45
71.312
23.926
-23.444
-68.295
-107.617
-138.818
-160.265
-171.409
-172.935
-165.986
-151.509
-131.139
-107.476
-83.239
-60.704
-41.36
-25.757
-14.222
-7.286
-4.807
-5.801
-8.86
-12.488
-15.753
-18.355
-19.992
-20.163
-18.669
-15.672
-11.716
-7.626
-3.832
-0.373
2.726
5.405
7.615
9.319
10.685
12.07
13.674
15.544
17.679
20.015
22.536
25.269
28.189
31.219
34.287
37.332
40.315
43.224
46.047
48.765
51.367
53.836
56.166
58.362
60.432
62.385
64.222
65.937
67.522
68.971
70.283
71.458
72.499
73.404
74.173
74.807
75.31
75.685
75.934
76.055
76.047
75.906
75.632
75.229
74.701
74.054
73.295
72.432
71.472
70.427
69.307
68.119
66.875
65.582
64.251
62.894
61.522
60.148
58.786
57.452
56.158
54.922
53.758
52.683
51.71
50.855
50.133
49.556
49.139
48.894
48.833
48.968
49.309
49.865
50.643
51.65
52.891
54.368
56.084
58.038
60.228
62.652
65.305
68.182
71.274
74.573
78.07
81.751
85.604
89.613
93.762
98.033
102.408
106.867
111.387
115.949
120.528
125.102
129.647
134.14
138.556
142.871
147.061
151.102
154.971
158.645
162.104
165.325
168.289
170.978
173.373
175.46
177.223
178.649
179.727
180.447
180.801
180.782
180.387
179.613
178.46
176.928
175.02
172.742
170.1
167.102
163.757
160.077
156.073
151.759
147.151
142.263
137.114
131.721
126.102
120.276
114.264
108.084
101.755
95.299
88.735
82.083
75.361
68.591
61.789
54.976
48.167
41.38
34.63
27.931
21.297
14.739
8.267
1.892
-4.379
-10.538
-16.578
-22.496
-28.286
-33.945
-39.471
-44.864
-50.121
-55.246
-60.24
-65.104
-69.843
-74.46
-78.957
-83.339
-87.61
-91.775
-95.839
-99.806
-103.682
-107.474
-111.189
-114.832
-118.41
-121.926
-125.385
-128.793
-132.151
-135.462
-138.725
-141.941
-145.112
-148.237
-151.316
-154.347
-157.328
-160.258
-163.135
-165.956
-168.716
-171.409
-174.027
-176.562
-179.005
-181.347
-183.579
-185.691
-187.671
-189.51
-191.198
-192.726
-194.085
-195.263
-196.245
-197.02
-197.575
-197.896
-197.97
-197.786
-197.337
-196.619
-195.632
-194.377
-192.853
-191.057
-188.981
-186.604
-183.899
-180.832
-177.37
-173.489
-169.178
-164.434
-159.263
-153.671
-147.666
-141.256
-134.446
-127.234
-119.616
-111.581
-103.135
-94.339
-85.315
-76.211
-67.172
-58.302
-49.653
-41.282
-33.274
-25.654
-18.346
-11.186
-3.988
3.296
10.526
17.545
24.368
31.051
37.619
43.94
49.738
54.941
59.838
64.82
70.098
75.844
82.205
89.472
98.258
109.044
122.021
137.307
155
174.994
197.045
220.781
245.443
270.019
293.226
313.408
328.837
338.068
339.97
333.474
317.68
292.43
258.498
217.583
172.012
124.187
76.353
31.047
-8.911
-41.528
-65.818
-81.704
-90.029
-91.936
-88.629
-81.895
-74.015
-66.673
-60.88
-57.13
-55.274
-55.042
-56.148
-57.867
-59.17
-59.411
-58.338
-55.962
-52.597
-48.513
-43.883
-39.043
-34.418
-30.268
-26.7
-23.68
-21.033
-18.617
-16.366
-14.186
-11.967
-9.601
-6.963
-3.97
-0.607
3.136
7.267
11.793
16.726
22.053
27.726
33.686
39.878
46.25
52.763
59.375
66.029
72.664
79.208
85.606
91.818
97.809
103.547
109
114.139
118.945
123.413
127.539
131.313
134.724
137.756
140.403
142.658
144.521
145.989
147.056
147.717
147.97
147.811
147.238
146.251
144.846
143.022
140.778
138.12
135.053
131.585
127.726
123.486
118.876
113.912
108.609
102.982
97.048
90.825
84.332
77.591
70.622
63.449
56.093
48.578
40.93
33.173
25.332
17.432
9.499
1.557
-6.366
-14.245
-22.055
-29.77
-37.365
-44.816
-52.098
-59.19
-66.069
-72.714
-79.106
-85.226
-91.056
-96.579
-101.782
-106.651
-111.174
-115.341
-119.142
-122.569
-125.618
-128.283
-130.561
-132.452
-133.954
-135.07
-135.802
-136.154
-136.132
-135.743
-134.995
-133.896
-132.458
-130.692
-128.611
-126.23
-123.562
-120.625
-117.434
-114.008
-110.364
-106.522
-102.501
-98.32
-94
-89.562
-85.026
-80.414
-75.747
-71.046
-66.331
-61.624
-56.946
-52.316
-47.755
-43.282
-38.916
-34.676
-30.58
-26.645
-22.888
-19.326
-15.972
-12.843
-9.95
-7.307
-4.924
-2.811
-0.976
0.573
1.833
2.797
3.465
3.834
3.907
3.684
3.17
2.37
1.291
-0.057
-1.665
-3.52
-5.609
-7.917
-10.428
-13.126
-15.992
-19.008
-22.153
-25.409
-28.753
-32.162
-35.615
-39.088
-42.556
-45.997
-49.386
-52.699
-55.912
-59.004
-61.952
-64.736
-67.336
-69.733
-71.908
-73.845
-75.53
-76.947
-78.086
-78.934
-79.485
-79.732
-79.673
-79.305
-78.629
-77.646
-76.36
-74.775
-72.899
-70.737
-68.298
-65.592
-62.629
-59.424
-55.992
-52.349
-48.513
-44.503
-40.342
-36.05
-31.647
-27.154
-22.59
-17.973
-13.322
-8.654
-3.985
0.67
5.294
9.874
14.392
18.837
23.198
27.466
31.636
35.699
39.651
43.488
47.212
50.821
54.311
57.671
60.889
63.957
66.874
69.64
72.258
74.733
77.079
79.325
81.517
83.705
85.927
88.204
90.547
92.972
95.501
98.161
100.975
103.951
107.09
110.411
113.957
117.748
121.759
125.916
130.067
134.066
137.827
141.257
144.26
146.812
148.951
150.8
152.636
154.703
157.129
160.069
163.575
167.455
171.425
175.033
177.632
178.802
178.271
175.672
170.985
164.76
157.853
151.574
147.534
146.998
151.189
161.547
178.972
203.508
234.507
270.533
309.578
349.522
387.853
421.514
447.677
464.246
469.821
463.604
445.466
416.097
377.09
330.964
280.657
228.976
178.689
132.789
94.066
64.43
44.865
35.512
35.815
44.742
60.621
80.89
102.496
122.767
139.511
150.805
155.279
152.302
141.942
125.177
103.732
79.287
53.509
28.31
5.219
-14.843
-31.331
-44.279
-54.207
-61.589
-67.087
-71.689
-76.12
-80.811
-86.053
-91.845
-98.056
-104.637
-111.403
-118.042
-124.375
-130.294
-135.758
-140.849
-145.639
-150.163
-154.482
-158.65
-162.691
-166.627
-170.453
-174.138
-177.659
-181
-184.155
-187.135
-189.953
-192.62
-195.151
-197.561
-199.867
-202.086
-204.233
-206.323
-208.371
-210.387
-212.38
-214.361
-216.337
-218.315
-220.298
-222.286
-224.278
-226.274
-228.274
-230.276
-232.275
-234.265
-236.242
-238.2
-240.131
-242.031
-243.89
-245.701
-247.458
-249.152
-250.775
-252.319
-253.776
-255.137
-256.395
-257.544
-258.576
-259.489
-260.278
-260.943
-261.486
-261.907
-262.209
-262.396
-262.471
-262.441
-262.309
-262.082
-261.763
-261.362
-260.889
-260.356
-259.78
-259.177
-258.563
-257.959
-257.384
-256.857
-256.395
-256.014
-255.727
-255.55
-255.502
-255.605
-255.886
-256.365
-257.055
-257.968
-259.11
-260.478
-262.062
-263.835
-265.767
-267.841
-270.048
-272.388
-274.878
-277.53
-280.354
-283.367
-286.568
-289.958
-293.546
-297.324
-301.295
-305.479
-309.908
-314.639
-319.747
-325.261
-331.19
-337.521
-344.198
-351.159
-358.328
-365.595
-372.874
-380.093
-387.174
-394.072
-400.736
-407.085
-413.033
-418.464
-423.238
-427.265
-430.488
-432.867
-434.423
-435.192
-435.243
-434.697
-433.655
-432.193
-430.383
-428.266
-425.875
-423.277
-420.538
-417.736
-414.981
-412.35
-409.899
-407.683
-405.709
-403.965
-402.418
-400.985
-399.596
-398.21
-396.795
-395.339
-393.843
-392.29
-390.671
-388.979
-387.189
-385.279
-383.237
-381.042
-378.691
-376.199
-373.585
-370.892
-368.159
-365.41
-362.661
-359.922
-357.193
-354.476
-351.77
-349.064
-346.354
-343.642
-340.928
-338.22
-335.521
-332.831
-330.149
-327.469
-324.787
-322.101
-319.411
-316.716
-314.021
-311.333
-308.661
-306.018
-303.417
-300.871
-298.394
-295.999
-293.702
-291.515
-289.453
-287.53
-285.762
-284.165
-282.753
-281.542
-280.549
-279.789
-279.279
-279.038
-279.081
-279.423
-280.079
-281.063
-282.387
-284.063
-286.1
-288.506
-291.29
-294.462
-298.035
-302.021
-306.429
-311.258
-316.504
-322.157
-328.195
-334.594
-341.312
-348.301
-355.514
-362.906
-370.435
-378.066
-385.753
-393.451
-401.116
-408.694
-416.141
-423.419
-430.489
-437.331
-443.952
-450.373
-456.64
-462.826
-468.984
-475.177
-481.461
-487.864
-494.418
-501.136
-508.007
-515.029
-522.173
-529.41
-536.724
-544.063
-551.342
-558.435
-565.135
-571.224
-576.526
-580.781
-583.695
-584.922
-583.99
-580.605
-574.68
-566.117
-554.886
-541.016
-524.46
-505.557
-485.102
-463.609
-441.375
-418.503
-394.682
-369.797
-344.096
-317.255
-288.285
-256.315
-220.497
-180.57
-137.293
-91.257
-42.647
7.75
58.305
106.841
150.576
187.184
215.444
234.118
241.832
237.7
222.17
197.474
166.121
130.381
91.358
49.037
6.885
-29.271
-54.079
-61.795
-52.439
-30.9
-0.437
34.171
71.083
111.815
153.435
193.481
228.71
254.121
270.374
279.249
282.581
283.863
283.497
281.496
279.115
276.935
276.224
278.002
282.166
288.329
295.849
304.011
312.118
319.662
326.433
332.304
337.317
341.649
345.429
348.868
352.273
355.792
359.464
363.307
367.249
371.243
375.29
379.332
383.29
387.115
390.752
394.187
397.443
400.525
403.433
406.171
408.736
411.142
413.417
415.57
417.606
419.525
421.319
422.995
424.56
426.021
427.387
428.665
429.863
430.992
432.063
433.086
434.072
435.029
435.96
436.874
437.779
438.685
439.602
440.542
441.513
442.525
443.587
444.706
445.889
447.139
448.458
449.85
451.315
452.854
454.466
456.151
457.909
459.737
461.633
463.594
465.616
467.693
469.821
471.992
474.199
476.432
478.682
480.939
483.193
485.432
487.644
489.819
491.942
494.002
495.986
497.881
499.675
501.356
502.913
504.335
505.613
506.737
507.702
508.499
509.123
509.568
509.832
509.911
509.803
509.506
509.02
508.347
507.487
506.445
505.224
503.829
502.268
500.547
498.676
496.664
494.523
492.264
489.902
487.45
484.923
482.336
479.705
477.046
474.376
471.711
469.066
466.457
463.9
461.408
458.997
456.678
454.465
452.368
450.398
448.565
446.876
445.341
443.964
442.75
441.704
440.828
440.123
439.588
439.221
439.019
438.977
439.088
439.343
439.733
440.246
440.871
441.593
442.397
443.269
444.192
445.149
446.123
447.097
448.053
448.974
449.843
450.645
451.362
451.981
452.487
452.867
453.109
453.201
453.134
452.897
452.483
451.886
451.101
450.124
448.953
447.589
446.034
444.291
442.364
440.261
437.988
435.557
432.976
430.258
427.416
424.463
421.414
418.285
415.092
411.851
408.577
405.288
401.999
398.724
395.477
392.272
389.119
386.031
383.018
380.089
377.251
374.512
371.878
369.351
366.934
364.627
362.425
360.325
358.321
356.403
354.564
352.79
351.071
349.393
347.743
346.103
344.458
342.788
341.073
339.293
337.425
335.447
333.336
331.069
328.624
325.983
323.127
320.039
316.702
313.101
309.223
305.058
300.594
295.822
290.735
285.323
279.582
273.511
267.109
260.38
253.328
245.957
238.273
230.289
222.011
213.448
204.605
195.478
186.069
176.385
166.44
156.255
145.863
135.305
124.628
113.887
103.13
92.397
81.722
71.123
60.617
50.216
39.95
29.868
20.025
10.49
1.301
-7.531
-16.032
-24.274
-32.35
-40.353
-48.397
-56.612
-65.023
-73.573
-82.117
-90.369
-98.144
-105.375
-111.955
-117.847
-123.229
-128.385
-133.794
-140.145
-147.855
-157.129
-168.23
-181.059
-195.052
-209.388
-222.826
-233.885
-241.367
-244.066
-240.632
-230.351
-213.299
-190.184
-162.378
-131.449
-99.074
-67.578
-39.75
-17.969
-3.983
1.19
-2.992
-17.184
-40.839
-71.656
-106.984
-144.586
-183.974
-225.969
-269.457
-310.105
-341.719
-359.34
-360.931
-348.487
-327.208
-300.653
-272.989
-248.823
-229.72
-218.43
-214.847
-214.784
-215.642
-214.099
-208.662
-201.259
-192.969
-184.761
-177.094
-169.073
-160.439
-151.486
-142.537
-134.144
-126.536
-119.602
-113.239
-107.302
-101.639
-96.126
-90.629
-85.075
-79.454
-73.784
-68.089
-62.368
-56.615
-50.839
-45.057
-39.279
-33.519
-27.79
-22.109
-16.522
-11.082
-5.839
-0.847
3.865
8.283
12.393
16.187
19.662
22.815
25.653
28.187
30.422
32.361
34.008
35.369
36.456
37.287
37.878
38.247
38.412
38.387
38.189
37.832
37.327
36.686
35.918
35.029
34.029
32.928
31.735
30.461
29.116
27.707
26.245
24.737
23.191
21.612
20.005
18.375
16.723
15.055
13.373
11.679
9.977
8.268
6.555
4.839
3.121
1.401
-0.32
-2.042
-3.766
-5.492
-7.222
-8.955
-10.691
-12.43
-14.171
-15.913
-17.653
-19.391
-21.122
-22.844
-24.554
-26.248
-27.921
-29.569
-31.186
-32.768
-34.308
-35.8
-37.239
-38.618
-39.932
-41.175
-42.342
-43.429
-44.429
-45.341
-46.158
-46.879
-47.499
-48.017
-48.43
-48.736
-48.935
-49.026
-49.009
-48.887
-48.66
-48.333
-47.909
-47.393
-46.792
-46.111
-45.358
-44.543
-43.673
-42.76
-41.812
-40.842
-39.86
-38.877
-37.905
-36.956
-36.041
-35.17
-34.353
-33.601
-32.924
-32.329
-31.825
-31.421
-31.121
-30.934
-30.863
-30.914
-31.091
-31.396
-31.83
-32.396
-33.091
-33.915
-34.865
-35.938
-37.128
-38.429
-39.835
-41.338
-42.928
-44.595
-46.329
-48.118
-49.95
-51.812
-53.69
-55.572
-57.444
-59.293
-61.105
-62.869
-64.572
-66.202
-67.747
-69.197
-70.54
-71.768
-72.869
-73.837
-74.663
-75.34
-75.863
-76.228
-76.43
-76.467
-76.339
-76.044
-75.584
-74.961
-74.177
-73.238
-72.149
-70.916
-69.548
-68.053
-66.442
-64.727
-62.919
-61.031
-59.076
-57.069
-55.023
-52.952
-50.871
-48.795
-46.737
-44.714
-42.742
-40.836
-39.013
-37.288
-35.676
-34.192
-32.851
-31.665
-30.648
-29.809
-29.161
-28.714
-28.478
-28.462
-28.676
-29.126
-29.819
-30.761
-31.957
-33.411
-35.12
-37.083
-39.298
-41.758
-44.46
-47.396
-50.555
-53.928
-57.502
-61.268
-65.212
-69.32
-73.575
-77.959
-82.452
-87.036
-91.694
-96.408
-101.155
-105.92
-110.686
-115.44
-120.182
-124.904
-129.59
-134.225
-138.784
-143.23
-147.535
-151.664
-155.57
-159.222
-162.59
-165.65
-168.393
-170.811
-172.893
-174.618
-175.946
-176.824
-177.22
-177.12
-176.546
-175.568
-174.261
-172.717
-171.038
-169.333
-167.728
-166.261
-164.879
-163.443
-161.72
-159.554
-156.93
-153.792
-150.095
-146.014
-141.813
-137.921
-135.044
-133.604
-133.775
-135.813
-139.65
-144.761
-150.427
-155.482
-158.428
-158.158
-153.569
-143.421
-127.162
-104.834
-77.027
-45.137
-10.742
24.623
58.791
89.27
113.905
130.69
138.296
135.925
123.186
100.913
70.738
34.685
-6.699
-54.388
-107.753
-164.287
-216.997
-256.367
-277.69
-279.686
-266.721
-247.416
-226.559
-208.576
-195.41
-185.821
-180.505
-177.872
-176.429
-175.758
-174.062
-171.607
-168.567
-164.607
-160.349
-155.422
-149.593
-143.289
-136.668
-130.157
-124.286
-119.15
-114.737
-111.006
-107.792
-104.981
-102.481
-100.178
-97.955
-95.701
-93.35
-90.858
-88.207
-85.398
-82.432
-79.302
-76.02
-72.616
-69.125
-65.596
-62.076
-58.599
-55.212
-51.961
-48.897
-46.084
-43.569
-41.385
-39.562
-38.119
-37.072
-36.437
-36.223
-36.424
-37.037
-38.059
-39.484
-41.313
-43.541
-46.156
-49.147
-52.496
-56.19
-60.215
-64.559
-69.204
-74.135
-79.336
-84.791
-90.483
-96.396
-102.508
-108.795
-115.233
-121.798
-128.463
-135.202
-141.987
-148.791
-155.587
-162.349
-169.05
-175.664
-182.165
-188.527
-194.725
-200.734
-206.531
-212.095
-217.404
-222.438
-227.18
-231.613
-235.722
-239.495
-242.92
-245.987
-248.689
-251.02
-252.976
-254.556
-255.758
-256.586
-257.044
-257.139
-256.878
-256.272
-255.333
-254.075
-252.513
-250.663
-248.545
-246.178
-243.581
-240.776
-237.785
-234.632
-231.34
-227.932
-224.434
-220.868
-217.26
-213.633
-210.011
-206.417
-202.874
-199.402
-196.022
-192.756
-189.621
-186.635
-183.814
-181.175
-178.729
-176.491
-174.471
-172.677
-171.119
-169.803
-168.733
-167.913
-167.345
-167.03
-166.968
-167.155
-167.59
-168.266
-169.18
-170.323
-171.688
-173.267
-175.049
-177.024
-179.182
-181.511
-183.998
-186.631
-189.397
-192.284
-195.276
-198.362
-201.528
-204.759
-208.041
-211.362
-214.708
-218.064
-221.418
-224.756
-228.064
-231.33
-234.541
-237.684
-240.747
-243.717
-246.582
-249.33
-251.952
-254.435
-256.769
-258.943
-260.949
-262.776
-264.417
-265.862
-267.105
-268.137
-268.952
-269.545
-269.911
-270.044
-269.942
-269.601
-269.018
-268.192
-267.122
-265.808
-264.253
-262.457
-260.424
-258.16
-255.67
-252.961
-250.04
-246.918
-243.603
-240.107
-236.442
-232.619
-228.654
-224.558
-220.35
-216.044
-211.659
-207.211
-202.718
-198.199
-193.671
-189.155
-184.667
-180.225
-175.848
-171.553
-167.357
-163.28
-159.337
-155.546
-151.922
-148.479
-145.232
-142.192
-139.369
-136.773
-134.409
-132.283
-130.403
-128.771
-127.39
-126.262
-125.388
-124.768
-124.402
-124.286
-124.413
-124.775
-125.361
-126.16
-127.16
-128.343
-129.692
-131.188
-132.815
-134.558
-136.397
-138.314
-140.286
-142.293
-144.318
-146.344
-148.352
-150.318
-152.222
-154.048
-155.789
-157.447
-159.018
-160.493
-161.86
-163.113
-164.244
-165.238
-166.068
-166.683
-167.031
-167.073
-166.795
-166.194
-165.259
-163.978
-162.335
-160.313
-157.924
-155.175
-152.049
-148.53
-144.625
-140.381
-135.912
-131.385
-126.942
-122.722
-118.874
-115.45
-112.453
-109.809
-107.309
-104.755
-102.023
-98.942
-95.328
-91.27
-87.035
-83.082
-80.129
-78.637
-78.741
-80.713
-84.845
-90.889
-98.15
-105.365
-110.655
-112.571
-110.184
-102.246
-87.445
-65.166
-35.382
0.861
41.45
84.564
128.446
170.549
208.063
238.358
258.884
268.177
265.663
251.112
225.589
190.926
148.818
100
44.993
-14.295
-73.392
-124.649
-161.552
-181.094
-183.974
-174.844
-157.67
-136.135
-114.369
-94.899
-81.192
-73.856
-69.752
-66.556
-60.916
-51.676
-40.909
-29.198
-17.199
-5.258
7.71
21.794
36.471
51.458
66.139
79.975
92.867
104.756
115.633
125.675
135.048
143.84
152.139
160.044
167.62
174.972
182.261
189.587
197.037
204.71
212.661
220.931
229.549
238.474
247.622
256.892
266.165
275.344
284.35
293.079
301.424
309.265
316.465
322.906
328.477
333.048
336.516
338.807
339.866
339.689
338.31
335.787
332.196
327.617
322.143
315.89
308.998
301.623
293.914
286.003
278.015
270.097
262.387
255.007
248.063
241.635
235.78
230.548
225.983
222.11
218.922
216.386
214.427
212.947
211.868
211.135
210.695
210.499
210.49
210.614
210.84
211.139
211.485
211.843
212.162
212.404
212.566
212.666
212.753
212.903
213.164
213.569
214.15
214.926
215.913
217.127
218.564
220.213
222.074
224.158
226.493
229.102
231.988
235.142
238.542
242.15
245.943
249.902
254.003
258.231
262.577
267.033
271.606
276.304
281.128
286.076
291.135
296.292
301.54
306.873
312.285
317.773
323.333
328.957
334.643
340.384
346.172
351.992
357.828
363.661
369.47
375.238
380.945
386.57
392.094
397.498
402.762
407.868
412.795
417.523
422.033
426.301
430.31
434.038
437.469
440.584
443.368
445.807
447.888
449.601
450.935
451.884
452.442
452.604
452.369
451.736
450.708
449.287
447.481
445.298
442.748
439.843
436.597
433.028
429.153
424.991
420.564
415.894
411.003
405.917
400.661
395.261
389.745
384.139
378.472
372.773
367.068
361.385
355.753
350.195
344.739
339.408
334.223
329.208
324.381
319.76
315.362
311.201
307.289
303.636
300.251
297.139
294.305
291.75
289.475
287.478
285.754
284.298
283.103
282.157
281.451
280.971
280.702
280.628
280.731
280.993
281.394
281.913
282.528
283.218
283.959
284.728
285.504
286.264
286.984
287.645
288.225
288.704
289.064
289.29
289.363
289.272
289.002
288.542
287.883
287.015
285.93
284.623
283.089
281.324
279.328
277.099
274.64
271.954
269.045
265.921
262.59
259.059
255.341
251.445
247.384
243.173
238.826
234.359
229.788
225.131
220.407
215.633
210.828
206.008
201.19
196.389
191.621
186.903
182.251
177.68
173.207
168.85
164.629
160.562
156.664
152.95
149.431
146.117
143.018
140.14
137.487
135.061
132.862
130.887
129.133
127.592
126.255
125.111
124.151
123.367
122.755
122.314
122.041
121.939
122.016
122.284
122.756
123.449
124.376
125.566
127.058
128.881
131.043
133.537
136.326
139.363
142.615
146.005
149.416
152.79
156.115
159.446
162.938
166.686
170.668
174.915
179.49
184.23
188.823
192.738
195.186
195.612
193.793
189.452
182.334
172.687
161.161
148.936
137.713
128.82
123.191
121.965
126.323
136.823
153.355
174.917
199.759
226.44
253.479
278.709
299.564
313.692
319.32
315.62
302.284
278.749
245.176
202.962
154.325
102.018
48.635
-3.754
-52.791
-95.504
-129.818
-154.964
-171.072
-179.123
-180.126
-174.918
-165.278
-154.066
-143.716
-135.702
-130.794
-129.102
-130.854
-136.499
-145.646
-156.832
-168.523
-179.743
-190.05
-199.447
-207.804
-214.676
-219.991
-224.304
-228.392
-232.809
-237.761
-243.149
-248.871
-255.031
-261.663
-268.606
-275.566
-282.268
-288.572
-294.477
-300.033
-305.23
-310.042
-314.463
-318.524
-322.281
-325.778
-329.041
-332.077
-334.902
-337.546
-340.035
-342.388
-344.617
-346.72
-348.694
-350.531
-352.22
-353.748
-355.109
-356.298
-357.311
-358.14
-358.779
-359.218
-359.451
-359.468
-359.259
-358.814
-358.127
-357.192
-356.009
-354.581
-352.909
-350.998
-348.851
-346.472
-343.865
-341.033
-337.98
-334.711
-331.233
-327.551
-323.673
-319.61
-315.371
-310.967
-306.41
-301.709
-296.875
-291.921
-286.856
-281.691
-276.436
-271.103
-265.702
-260.244
-254.739
-249.198
-243.632
-238.05
-232.463
-226.881
-221.311
-215.764
-210.246
-204.767
-199.334
-193.953
-188.632
-183.376
-178.191
-173.083
-168.057
-163.116
-158.265
-153.507
-148.845
-144.282
-139.819
-135.46
-131.206
-127.059
-123.021
-119.094
-115.28
-111.581
-107.998
-104.533
-101.186
-97.96
-94.856
-91.873
-89.013
-86.277
-83.665
-81.176
-78.812
-76.573
-74.458
-72.467
-70.6
-68.856
-67.235
-65.737
-64.36
-63.105
-61.97
-60.954
-60.057
-59.277
-58.613
-58.064
-57.628
-57.304
-57.088
-56.978
-56.973
-57.07
-57.265
-57.556
-57.94
-58.415
-58.977
-59.625
-60.354
-61.162
-62.048
-63.008
-64.039
-65.141
-66.311
-67.546
-68.846
-70.209
-71.632
-73.116
-74.657
-76.255
-77.908
-79.615
-81.375
-83.185
-85.046
-86.955
-88.911
-90.914
-92.962
-95.055
-97.191
-99.371
-101.593
-103.855
-106.158
-108.499
-110.878
-113.292
-115.742
-118.224
-120.737
-123.28
-125.85
-128.445
-131.061
-133.695
-136.344
-139.005
-141.672
-144.342
-147.01
-149.673
-152.325
-154.963
-157.583
-160.178
-162.746
-165.282
-167.78
-170.237
-172.646
-175.005
-177.307
-179.549
-181.726
-183.833
-185.867
-187.825
-189.703
-191.498
-193.206
-194.826
-196.354
-197.789
-199.127
-200.37
-201.516
-202.567
-203.524
-204.39
-205.168
-205.862
-206.476
-207.015
-207.484
-207.888
-208.232
-208.523
-208.766
-208.969
-209.139
-209.285
-209.416
-209.541
-209.669
-209.81
-209.974
-210.17
-210.404
-210.684
-211.015
-211.403
-211.855
-212.377
-212.97
-213.638
-214.384
-215.21
-216.117
-217.101
-218.157
-219.278
-220.456
-221.684
-222.956
-224.266
-225.605
-226.97
-228.352
-229.753
-231.18
-232.632
-234.098
-235.565
-237.008
-238.406
-239.743
-240.995
-242.126
-243.11
-243.916
-244.522
-244.92
-245.088
-245.001
-244.623
-243.888
-242.751
-241.18
-239.16
-236.719
-233.892
-230.71
-227.244
-223.576
-219.791
-216.024
-212.311
-208.575
-204.706
-200.476
-195.711
-190.393
-184.409
-177.568
-169.944
-161.762
-153.508
-146.11
-140.249
-136.252
-134.61
-135.644
-139.106
-144.463
-150.469
-155.068
-156.608
-153.529
-143.982
-126.751
-101.277
-68.06
-29.34
12.714
56.471
100.511
144.337
184.626
215.69
232.457
229.447
206.598
169.494
123.543
74.487
24.057
-30.182
-88.057
-145.897
-195.968
-229.507
-242.636
-237.213
-220.061
-198.499
-176.566
-155.817
-135.627
-115.398
-95.98
-78.662
-64.784
-55.119
-49.813
-48.083
-48.556
-50.151
-51.853
-53.049
-53.659
-53.402
-51.82
-48.933
-45.045
-40.592
-36.279
-32.467
-29.141
-26.382
-24.31
-22.92
-22.158
-21.825
-21.534
-21.072
-20.401
-19.489
-18.358
-17.011
-15.417
-13.602
-11.653
-9.627
-7.552
-5.448
-3.299
-1.113
1.077
3.248
5.387
7.489
9.566
11.633
13.699
15.779
17.891
20.055
22.287
24.607
27.025
29.556
32.212
35.009
37.965
41.098
44.422
47.948
51.687
55.644
59.824
64.227
68.852
73.699
78.764
84.047
89.543
95.247
101.153
107.252
113.534
119.987
126.595
133.344
140.214
147.189
154.248
161.373
168.543
175.737
182.934
190.113
197.252
204.33
211.323
218.211
224.971
231.581
238.02
244.27
250.309
256.119
261.682
266.983
272.005
276.735
281.16
285.268
289.05
292.497
295.603
298.362
300.771
302.828
304.534
305.889
306.897
307.563
307.891
307.89
307.568
306.932
305.994
304.764
303.254
301.476
299.443
297.169
294.668
291.954
289.042
285.947
282.684
279.268
275.714
272.037
268.252
264.372
260.411
256.383
252.3
248.175
244.019
239.843
235.656
231.468
227.288
223.122
218.978
214.861
210.778
206.733
202.731
198.775
194.868
191.014
187.215
183.472
179.787
176.161
172.594
169.086
165.637
162.246
158.913
155.638
152.418
149.253
146.141
143.081
140.072
137.113
134.202
131.338
128.521
125.751
123.026
120.349
117.718
115.136
112.603
110.121
107.691
105.316
102.997
100.737
98.537
96.4
94.329
92.326
90.395
88.538
86.76
85.063
83.451
81.929
80.498
79.165
77.931
76.801
75.778
74.867
74.072
73.396
72.842
72.415
72.116
71.947
71.911
72.008
72.237
72.599
73.092
73.715
74.466
75.343
76.343
77.463
78.7
80.048
81.504
83.061
84.712
86.45
88.266
90.153
92.101
94.1
96.139
98.21
100.3
102.398
104.49
106.564
108.603
110.594
112.521
114.369
116.123
117.769
119.291
120.678
121.916
122.994
123.899
124.618
125.139
125.451
125.542
125.4
125.013
124.371
123.467
122.294
120.847
119.126
117.126
114.85
112.299
109.48
106.396
103.051
99.451
95.603
91.519
87.212
82.691
77.971
73.067
67.993
62.771
57.419
51.948
46.369
40.685
34.902
29.036
23.101
17.109
11.082
5.047
-0.952
-6.847
-12.586
-18.131
-23.453
-28.536
-33.358
-37.89
-42.112
-46.005
-49.555
-52.743
-55.529
-57.872
-59.784
-61.31
-62.565
-63.715
-64.875
-66.153
-67.677
-69.479
-71.54
-73.782
-75.969
-77.898
-79.459
-80.491
-80.938
-81.004
-80.96
-81.264
-82.527
-85.048
-89.046
-94.868
-102.488
-111.417
-120.823
-129.31
-135.363
-137.966
-136.012
-128.21
-113.801
-92.548
-65.044
-32.902
2.172
38.659
74.447
107.033
134.119
153.431
163.51
163.763
153.245
131.958
101.792
64.81
23.181
-22.641
-74.889
-133.321
-194.297
-250.076
-290.261
-310.118
-310.075
-295.798
-275.917
-253.586
-230.315
-206.564
-182.853
-165.294
-158.611
-163.937
-178.756
-194.958
-206.248
-210.561
-208.916
-205.246
-201.757
-198.291
-194.24
-188.851
-182.542
-176.325
-170.669
-165.729
-161.454
-157.809
-154.83
-152.373
-150.086
-147.617
-144.803
-141.644
-138.203
-134.499
-130.502
-126.198
-121.634
-116.887
-112.007
-107.026
-101.955
-96.81
-91.637
-86.499
-81.461
-76.592
-71.941
-67.541
-63.423
-59.608
-56.116
-52.968
-50.18
-47.758
-45.71
-44.048
-42.783
-41.928
-41.495
-41.479
-41.87
-42.654
-43.822
-45.371
-47.301
-49.606
-52.266
-55.264
-58.577
-62.181
-66.049
-70.137
-74.384
-78.735
-83.136
-87.549
-91.958
-96.336
-100.657
-104.894
-109.015
-113.01
-116.892
-120.664
-124.325
-127.887
-131.356
-134.769
-138.197
-141.686
-145.265
-148.943
-152.683
-156.453
-160.227
-163.958
-167.605
-171.102
-174.342
-177.236
-179.708
-181.659
-183.004
-183.618
-183.333
-182.019
-179.567
-175.899
-170.997
-164.859
-157.477
-148.881
-139.105
-128.194
-116.254
-103.39
-89.701
-75.322
-60.382
-45.051
-29.556
-14.109
1.08
15.823
29.991
43.478
56.169
67.977
78.814
88.58
97.239
104.768
111.146
116.386
120.501
123.538
125.6
126.812
127.314
127.231
126.645
125.618
124.215
122.503
120.557
118.466
116.28
114.034
111.767
109.503
107.273
105.083
102.906
100.687
98.352
95.854
93.171
90.297
87.232
83.97
80.501
76.817
72.932
68.864
64.628
60.238
55.704
51.049
46.311
41.546
36.812
32.156
27.608
23.192
18.927
14.831
10.92
7.201
3.67
0.326
-2.834
-5.806
-8.59
-11.19
-13.617
-15.884
-18.007
-19.999
-21.872
-23.636
-25.303
-26.883
-28.385
-29.815
-31.176
-32.475
-33.718
-34.913
-36.067
-37.186
-38.275
-39.338
-40.381
-41.406
-42.416
-43.409
-44.385
-45.342
-46.276
-47.183
-48.057
-48.89
-49.674
-50.398
-51.052
-51.624
-52.1
-52.468
-52.716
-52.83
-52.795
-52.6
-52.23
-51.673
-50.916
-49.946
-48.754
-47.326
-45.654
-43.73
-41.546
-39.099
-36.383
-33.395
-30.135
-26.602
-22.797
-18.724
-14.385
-9.788
-4.94
0.148
5.463
10.989
16.709
22.601
28.644
34.815
41.089
47.444
53.856
60.3
66.752
73.188
79.582
85.912
92.152
98.274
104.251
110.058
115.669
121.063
126.217
131.108
135.711
140.01
143.987
147.626
150.907
153.802
156.285
158.34
159.958
161.13
161.858
162.141
161.989
161.435
160.52
159.289
157.787
156.038
154.052
151.854
149.469
146.925
144.254
141.46
138.54
135.523
132.422
129.235
125.942
122.448
118.626
114.384
109.592
104.119
97.962
91.163
83.837
76.246
68.58
60.95
53.597
46.757
40.423
34.45
28.399
21.598
13.794
5.049
-4.658
-15.377
-26.936
-38.854
-49.931
-58.436
-63.267
-63.854
-59.62
-49.868
-33.866
-11.238
17.325
50.157
85.934
123.566
161.595
198.04
230.336
255.883
272.819
280.111
276.602
261.188
234.291
198.004
154.949
108.18
58.696
5.252
-50.411
-104.365
-150.285
-179.002
-185.915
-171.782
-140.515
-100.818
-61.444
-26.904
-0.008
19.349
34.466
46.23
54.646
60.554
62.924
62.178
60.138
57.28
54.582
53.053
53.023
54.742
58.036
62.113
65.973
69.096
71.325
72.562
72.792
72.004
70.212
67.66
64.781
61.842
58.947
56.134
53.352
50.591
47.879
45.201
42.497
39.715
36.82
33.795
30.648
27.373
23.941
20.334
16.54
12.555
8.394
4.072
-0.392
-4.98
-9.67
-14.448
-19.304
-24.221
-29.189
-34.195
-39.226
-44.267
-49.301
-54.311
-59.279
-64.194
-69.045
-73.827
-78.533
-83.16
-87.706
-92.166
-96.537
-100.814
-104.991
-109.063
-113.025
-116.872
-120.6
-124.207
-127.692
-131.052
-134.287
-137.396
-140.376
-143.226
-145.943
-148.526
-150.97
-153.275
-155.436
-157.452
-159.32
-161.037
-162.603
-164.014
-165.27
-166.367
-167.305
-168.081
-168.693
-169.14
-169.42
-169.53
-169.471
-169.239
-168.835
-168.259
-167.509
-166.585
-165.488
-164.217
-162.773
-161.158
-159.371
-157.415
-155.292
-153.003
-150.554
-147.946
-145.185
-142.275
-139.221
-136.031
-132.708
-129.261
-125.696
-122.019
-118.239
-114.363
-110.399
-106.356
-102.243
-98.069
-93.844
-89.577
-85.278
-80.957
-76.625
-72.292
-67.967
-63.663
-59.389
-55.155
-50.972
-46.85
-42.799
-38.828
-34.947
-31.164
-27.488
-23.926
-20.484
-17.171
-13.991
-10.95
-8.053
-5.303
-2.704
-0.258
2.032
4.165
6.142
7.962
9.628
11.142
12.506
13.726
14.806
15.752
16.57
17.269
17.856
18.34
18.731
19.04
19.278
19.456
19.586
19.681
19.752
19.813
19.877
19.955
20.061
20.206
20.404
20.666
21.004
21.429
21.95
22.58
23.326
24.198
25.203
26.347
27.637
29.077
30.67
32.419
34.325
36.387
38.604
40.974
43.492
46.155
48.955
51.885
54.936
58.099
61.364
64.718
68.148
71.643
75.187
78.767
82.369
85.976
89.574
93.148
96.681
100.157
103.561
106.876
110.087
113.178
116.135
118.943
121.589
124.059
126.344
128.431
130.311
131.977
133.419
134.632
135.609
136.346
136.838
137.085
137.085
136.838
136.345
135.61
134.636
133.428
131.991
130.331
128.453
126.363
124.07
121.581
118.905
116.049
113.025
109.841
106.511
103.045
99.454
95.749
91.939
88.035
84.047
79.98
75.843
71.641
67.384
63.078
58.733
54.357
49.96
45.55
41.139
36.736
32.347
27.976
23.626
19.299
15.004
10.745
6.527
2.357
-1.759
-5.81
-9.783
-13.669
-17.467
-21.184
-24.832
-28.417
-31.929
-35.363
-38.714
-41.97
-45.117
-48.122
-50.934
-53.516
-55.85
-57.93
-59.768
-61.363
-62.697
-63.751
-64.507
-64.961
-65.127
-65.005
-64.582
-63.867
-62.881
-61.704
-60.473
-59.299
-58.263
-57.421
-56.78
-56.372
-56.274
-56.471
-56.87
-57.299
-57.466
-57.148
-56.241
-54.639
-52.235
-49.051
-45.184
-40.957
-37.004
-33.909
-32.11
-31.794
-32.803
-34.625
-36.505
-37.415
-35.943
-30.569
-19.839
-2.761
20.947
50.824
85.812
124.435
164.65
203.906
239.258
267.751
286.851
294.723
290.628
274.911
248.505
212.595
167.524
113.302
51.916
-11.854
-69.764
-113.085
-137.123
-142.747
-136.005
-123.556
-109.519
-95.02
-78.822
-60.926
-42.873
-26.32
-13.034
-3.753
1.855
4.169
3.758
1.847
-0.354
-2.216
-3.466
-4.109
-4.303
-3.955
-2.83
-1.255
0.169
1.144
1.529
1.407
1.031
0.434
-0.496
-1.668
-2.84
-3.825
-4.468
-4.741
-4.736
-4.473
-3.923
-3.085
-1.994
-0.708
0.7
2.176
3.697
5.237
6.757
8.226
9.612
10.894
12.061
13.11
14.039
14.846
15.535
16.101
16.539
16.849
17.03
17.082
17.007
16.808
16.486
16.047
15.494
14.831
14.059
13.178
12.188
11.089
9.879
8.559
7.133
5.605
3.98
2.263
0.46
-1.422
-3.377
-5.399
-7.483
-9.622
-11.811
-14.044
-16.315
-18.615
-20.938
-23.275
-25.619
-27.961
-30.293
-32.605
-34.891
-37.141
-39.348
-41.504
-43.6
-45.63
-47.585
-49.457
-51.24
-52.926
-54.509
-55.982
-57.338
-58.573
-59.679
-60.653
-61.49
-62.184
-62.732
-63.129
-63.373
-63.461
-63.389
-63.156
-62.76
-62.201
-61.478
-60.593
-59.546
-58.34
-56.978
-55.464
-53.802
-51.998
-50.058
-47.988
-45.796
-43.49
-41.078
-38.572
-35.979
-33.312
-30.58
-27.797
-24.974
-22.123
-19.257
-16.39
-13.535
-10.706
-7.916
-5.178
-2.507
0.085
2.584
4.979
7.256
9.405
11.415
13.276
14.977
16.512
17.873
19.053
20.047
20.851
21.463
21.879
22.101
22.127
21.96
21.602
21.057
20.331
19.428
18.356
17.123
15.738
14.211
12.553
10.775
8.889
6.907
4.844
2.711
0.525
-1.703
-3.957
-6.224
-8.489
-10.739
-12.961
-15.142
-17.269
-19.331
-21.317
-23.217
-25.022
-26.722
-28.309
-29.779
-31.123
-32.337
-33.418
-34.361
-35.166
-35.83
-36.353
-36.736
-36.979
-37.085
-37.056
-36.895
-36.606
-36.193
-35.66
-35.014
-34.26
-33.403
-32.45
-31.408
-30.283
-29.08
-27.806
-26.466
-25.066
-23.612
-22.108
-20.56
-18.973
-17.35
-15.696
-14.016
-12.312
-10.587
-8.843
-7.083
-5.308
-3.52
-1.719
0.094
1.918
3.751
5.592
7.44
9.294
11.153
13.015
14.88
16.747
18.615
20.482
22.347
24.209
26.063
27.906
29.734
31.543
33.328
35.084
36.807
38.491
40.132
41.725
43.265
44.746
46.16
47.503
48.766
49.942
51.021
51.995
52.854
53.592
54.205
54.684
55.028
55.232
55.295
55.217
54.998
54.634
54.123
53.461
52.646
51.68
50.567
49.308
47.908
46.372
44.71
42.935
41.057
39.077
36.991
34.789
32.469
30.044
27.522
24.912
22.229
19.495
16.744
14.032
11.395
8.858
6.427
4.1
1.88
-0.212
-2.152
-3.918
-5.5
-6.907
-8.131
-9.161
-10
-10.672
-11.259
-11.892
-12.673
-13.681
-14.969
-16.542
-18.431
-20.697
-23.317
-26.205
-29.204
-32.057
-34.556
-36.593
-38.053
-38.823
-38.913
-38.385
-37.494
-36.792
-36.82
-38.014
-40.605
-44.491
-49.16
-53.983
-58.167
-60.365
-59.022
-52.54
-39.63
-20.407
3.649
31.222
61.451
94.488
131.058
169.51
205.086
230.324
237.718
223.322
189.002
142.498
91.678
41.328
-8.513
-62.016
-119.886
-177.456
-226.273
-256.944
-266.455
-258.204
-238.481
-214.38
-188.728
-161.426
-133.736
-106.578
-82.96
-67.052
-58.715
-57.146
-60.639
-65.746
-72.14
-79.707
-87.44
-95.247
-101.772
-105.767
-107.243
-106.406
-103.882
-100.499
-96.859
-93.325
-90.199
-87.642
-85.633
-84.099
-82.881
-81.717
-80.332
-78.576
-76.385
-73.754
-70.743
-67.384
-63.696
-59.739
-55.587
-51.302
-46.932
-42.509
-38.036
-33.518
-28.973
-24.415
-19.857
-15.31
-10.769
-6.228
-1.695
2.816
7.29
11.709
16.064
20.347
24.545
28.651
32.655
36.549
40.326
43.98
47.503
50.886
54.117
57.183
60.074
62.781
65.298
67.619
69.741
71.66
73.374
74.883
76.185
77.28
78.168
78.85
79.327
79.602
79.679
79.564
79.263
78.786
78.141
77.338
76.387
75.3
74.087
72.762
71.336
69.822
68.233
66.582
64.884
63.152
61.401
59.645
57.9
56.179
54.498
52.871
51.312
49.834
48.449
47.171
46.011
44.979
44.086
43.341
42.753
42.328
42.073
41.994
42.093
42.375
42.84
43.49
44.325
45.343
46.543
47.922
49.476
51.202
53.093
55.145
57.35
59.701
62.19
64.808
67.546
70.393
73.337
76.369
79.475
82.645
85.865
89.124
92.408
95.707
99.008
102.3
105.571
108.811
112.008
115.154
118.239
121.253
124.19
127.041
129.8
132.459
135.014
137.459
139.79
142.001
144.09
146.052
147.887
149.591
151.164
152.606
153.916
155.096
156.147
157.072
157.874
158.557
159.124
159.58
159.93
160.179
160.332
160.396
160.376
160.277
160.105
159.866
159.566
159.209
158.802
158.349
157.855
157.325
156.764
156.176
155.565
154.936
154.291
153.636
152.973
152.305
151.635
150.964
150.296
149.632
148.973
148.319
147.67
147.028
146.39
145.757
145.127
144.499
143.87
143.24
142.606
141.966
141.32
140.664
139.997
139.318
138.625
137.915
137.187
136.44
135.67
134.876
134.057
133.211
132.337
131.432
130.496
129.527
128.525
127.488
126.415
125.304
124.153
122.961
121.725
120.445
119.118
117.743
116.319
114.844
113.317
111.734
110.094
108.392
106.623
104.783
102.866
100.868
98.783
96.606
94.331
91.953
89.468
86.869
84.15
81.304
78.323
75.198
71.922
68.485
64.877
61.092
57.122
52.963
48.61
44.061
39.314
34.366
29.219
23.873
18.325
12.575
6.624
0.472
-5.873
-12.405
-19.119
-26.008
-33.06
-40.261
-47.597
-55.058
-62.639
-70.342
-78.163
-86.089
-94.102
-102.186
-110.322
-118.486
-126.637
-134.714
-142.654
-150.407
-157.942
-165.247
-172.301
-179.075
-185.537
-191.652
-197.405
-202.796
-207.805
-212.387
-216.517
-220.208
-223.522
-226.608
-229.602
-232.59
-235.659
-238.875
-242.249
-245.749
-249.263
-252.565
-255.46
-257.807
-259.435
-260.273
-260.427
-260.126
-259.777
-259.796
-260.397
-261.75
-264.118
-267.636
-272.058
-276.65
-280.188
-281.506
-279.782
-274.178
-263.682
-247.277
-224.385
-195.433
-161.751
-124.735
-85.767
-46.652
-9.672
22.46
47.094
62.461
67.697
62.025
45.002
17.89
-17.203
-58.304
-102.406
-148.014
-193.999
-235.485
-268.664
-290.446
-298.046
-294.124
-281.644
-262.966
-241.831
-219.714
-198.135
-178.731
-161.806
-148.331
-139.16
-134.551
-134.334
-137.091
-140.859
-144.435
-147.237
-149.056
-149.782
-149.039
-146.657
-143.083
-139.185
-135.616
-132.621
-130.186
-128.173
-126.602
-125.557
-124.944
-124.483
-123.942
-123.205
-122.251
-121.163
-119.982
-118.685
-117.283
-115.808
-114.297
-112.806
-111.381
-110.046
-108.836
-107.783
-106.898
-106.199
-105.696
-105.387
-105.272
-105.337
-105.56
-105.934
-106.456
-107.128
-107.951
-108.917
-110.011
-111.218
-112.527
-113.923
-115.392
-116.914
-118.472
-120.05
-121.639
-123.229
-124.813
-126.378
-127.911
-129.4
-130.831
-132.191
-133.467
-134.646
-135.715
-136.662
-137.477
-138.152
-138.68
-139.053
-139.264
-139.304
-139.169
-138.851
-138.343
-137.641
-136.737
-135.628
-134.307
-132.772
-131.018
-129.042
-126.841
-124.415
-121.761
-118.878
-115.765
-112.422
-108.848
-105.045
-101.012
-96.751
-92.264
-87.553
-82.619
-77.467
-72.099
-66.518
-60.728
-54.733
-48.537
-42.145
-35.562
-28.795
-21.851
-14.737
-7.463
-0.038
7.528
15.223
23.036
30.953
38.96
47.045
55.19
63.381
71.601
79.834
88.061
96.265
104.429
112.534
120.561
128.492
136.307
143.989
151.517
158.873
166.037
172.992
179.718
186.199
192.416
198.354
203.996
209.329
214.34
219.015
223.344
227.318
230.929
234.17
237.036
239.525
241.635
243.366
244.72
245.699
246.31
246.558
246.451
245.997
245.207
244.092
242.665
240.94
238.931
236.653
234.124
231.361
228.382
225.206
221.851
218.337
214.684
210.911
207.037
203.081
199.062
194.999
190.908
186.805
182.707
178.628
174.581
170.578
166.629
162.744
158.931
155.197
151.547
147.987
144.518
141.143
137.864
134.679
131.589
128.59
125.68
122.855
120.11
117.44
114.84
112.303
109.824
107.393
105.006
102.655
100.331
98.028
95.738
93.454
91.171
88.882
86.583
84.269
81.937
79.586
77.214
74.822
72.408
69.974
67.52
65.05
62.566
60.073
57.572
55.071
52.572
50.084
47.611
45.16
42.735
40.341
37.983
35.665
33.392
31.166
28.991
26.87
24.806
22.803
20.862
18.984
17.169
15.413
13.715
12.07
10.47
8.908
7.373
5.858
4.355
2.855
1.35
-0.17
-1.714
-3.288
-4.899
-6.557
-8.271
-10.051
-11.908
-13.847
-15.874
-17.995
-20.217
-22.547
-24.99
-27.544
-30.209
-32.99
-35.895
-38.94
-42.135
-45.481
-48.974
-52.614
-56.399
-60.316
-64.34
-68.418
-72.496
-76.531
-80.5
-84.387
-88.168
-91.815
-95.296
-98.577
-101.649
-104.492
-107.065
-109.325
-111.25
-112.855
-114.219
-115.473
-116.726
-118.09
-119.69
-121.56
-123.677
-125.942
-128.122
-129.997
-131.435
-132.264
-132.297
-131.622
-130.518
-129.46
-129.195
-130.201
-132.595
-136.593
-142.436
-149.848
-158.136
-166.051
-171.717
-173.739
-171.311
-163.413
-148.98
-127.393
-98.58
-63.595
-24.379
16.934
58.503
98.812
135.504
167.305
193.192
210.174
216.745
210.425
188.908
155.727
114.642
69.084
22.051
-28.33
-82.442
-136.158
-182.61
-213.576
-224.879
-218.874
-202.394
-182.062
-161.835
-142.724
-123.528
-104.21
-85.67
-68.681
-54.608
-44.129
-37.037
-33.172
-31.554
-30.565
-29.424
-27.892
-25.82
-23.37
-20.51
-16.868
-12.645
-8.561
-4.986
-2.103
0.079
1.854
3.317
4.338
5.005
5.575
6.241
7.173
8.423
9.891
11.541
13.4
15.46
17.694
20.051
22.456
24.858
27.227
29.53
31.728
33.786
35.673
37.37
38.867
40.165
41.266
42.177
42.905
43.455
43.825
44.018
44.037
43.887
43.575
43.109
42.496
41.747
40.87
39.872
38.76
37.539
36.21
34.778
33.243
31.61
29.886
28.078
26.195
24.246
22.239
20.185
18.093
15.971
13.829
11.674
9.514
7.356
5.209
3.081
0.982
-1.08
-3.097
-5.06
-6.961
-8.791
-10.543
-12.21
-13.786
-15.265
-16.641
-17.909
-19.064
-20.102
-21.021
-21.818
-22.49
-23.037
-23.458
-23.753
-23.924
-23.973
-23.902
-23.714
-23.413
-23.003
-22.488
-21.873
-21.163
-20.363
-19.48
-18.52
-17.488
-16.392
-15.239
-14.036
-12.79
-11.508
-10.197
-8.864
-7.517
-6.16
-4.801
-3.446
-2.099
-0.766
0.548
1.84
3.106
4.344
5.55
6.724
7.865
8.971
10.043
11.083
12.09
13.068
14.018
14.942
15.845
16.73
17.6
18.46
19.315
20.169
21.027
21.894
22.776
23.677
24.603
25.559
26.549
27.579
28.652
29.772
30.944
32.17
33.453
34.796
36.201
37.668
39.2
40.794
42.453
44.173
45.955
47.796
49.693
51.644
53.645
55.692
57.782
59.908
62.066
64.251
66.455
68.674
70.9
73.126
75.346
77.552
79.738
81.896
84.02
86.101
88.133
90.109
92.021
93.864
95.631
97.315
98.913
100.417
101.825
103.132
104.333
105.426
106.407
107.274
108.023
108.654
109.165
109.554
109.822
109.967
109.991
109.895
109.681
109.35
108.905
108.348
107.684
106.913
106.041
105.071
104.007
102.855
101.619
100.305
98.918
97.463
95.945
94.369
92.74
91.06
89.335
87.566
85.758
83.913
82.037
80.132
78.202
76.249
74.277
72.287
70.281
68.259
66.221
64.166
62.095
60.006
57.898
55.77
53.621
51.453
49.264
47.054
44.821
42.565
40.286
37.986
35.664
33.321
30.959
28.579
26.183
23.774
21.355
18.926
16.488
14.039
11.583
9.12
6.648
4.16
1.638
-0.929
-3.546
-6.211
-8.912
-11.639
-14.381
-17.119
-19.824
-22.469
-25.031
-27.501
-29.883
-32.181
-34.38
-36.449
-38.328
-39.959
-41.322
-42.419
-43.28
-43.96
-44.513
-45.016
-45.613
-46.448
-47.568
-48.921
-50.331
-51.545
-52.407
-52.87
-52.848
-52.284
-51.327
-50.333
-49.912
-50.814
-53.508
-58.181
-65.007
-73.985
-84.701
-96.296
-107.384
-116.434
-122.283
-123.966
-120.441
-110.881
-94.975
-73.188
-46.857
-17.451
13.688
44.89
74.046
98.78
116.78
126.366
126.615
116.581
96.064
66.16
28.429
-15.236
-64.303
-119.439
-179.285
-239.271
-291.251
-326.647
-341.75
-338.84
-324.854
-307.004
-289.275
-272.358
-254.951
-236.842
-218.955
-202.424
-188.828
-178.717
-171.784
-167.851
-165.972
-164.709
-163.377
-161.687
-159.445
-156.824
-153.827
-150.134
-145.98
-142.053
-138.709
-136.135
-134.376
-133.198
-132.542
-132.551
-133.091
-133.855
-134.641
-135.273
-135.7
-136.013
-136.217
-136.262
-136.157
-135.936
-135.646
-135.35
-135.072
-134.802
-134.551
-134.337
-134.191
-134.138
-134.181
-134.31
-134.509
-134.757
-135.036
-135.323
-135.587
-135.801
-135.939
-135.98
-135.906
-135.698
-135.333
-134.793
-134.056
-133.104
-131.923
-130.503
-128.835
-126.916
-124.745
-122.324
-119.659
-116.756
-113.622
-110.263
-106.69
-102.914
-98.949
-94.81
-90.512
-86.075
-81.52
-76.869
-72.147
-67.377
-62.583
-57.79
-53.023
-48.305
-43.662
-39.116
-34.69
-30.406
-26.285
-22.348
-18.611
-15.094
-11.81
-8.773
-5.995
-3.485
-1.251
0.702
2.371
3.755
4.856
5.676
6.222
6.5
6.522
6.298
5.843
5.171
4.299
3.247
2.035
0.684
-0.784
-2.347
-3.981
-5.663
-7.37
-9.078
-10.766
-12.411
-13.993
-15.491
-16.886
-18.161
-19.299
-20.286
-21.108
-21.753
-22.212
-22.478
-22.544
-22.407
-22.064
-21.517
-20.767
-19.818
-18.677
-17.35
-15.849
-14.184
-12.369
-10.417
-8.345
-6.17
-3.91
-1.584
0.79
3.19
5.597
7.99
10.35
12.656
14.89
17.033
19.066
20.973
22.736
24.342
25.775
27.023
28.074
28.918
29.547
29.953
30.13
30.075
29.785
29.26
28.501
27.51
26.292
24.853
23.201
21.343
19.292
17.059
14.656
12.098
9.401
6.58
3.653
0.637
-2.449
-5.589
-8.763
-11.952
-15.138
-18.302
-21.425
-24.489
-27.475
-30.365
-33.14
-35.783
-38.277
-40.606
-42.755
-44.708
-46.451
-47.973
-49.261
-50.304
-51.092
-51.618
-51.873
-51.851
-51.549
-50.962
-50.088
-48.927
-47.48
-45.749
-43.739
-41.454
-38.9
-36.083
-33.011
-29.694
-26.142
-22.366
-18.379
-14.195
-9.831
-5.303
-0.63
4.168
9.072
14.06
19.11
24.2
29.307
34.406
39.476
44.491
49.427
54.257
58.958
63.505
67.874
72.038
75.975
79.661
83.079
86.209
89.034
91.539
93.709
95.533
96.999
98.097
98.818
99.152
99.092
98.64
97.798
96.572
94.973
93.012
90.701
88.056
85.098
81.839
78.29
74.46
70.353
65.989
61.399
56.615
51.676
46.623
41.488
36.316
31.16
26.053
21.026
16.099
11.279
6.605
2.129
-2.092
-5.991
-9.529
-12.693
-15.477
-17.88
-19.917
-21.604
-22.995
-24.172
-25.187
-26.08
-26.84
-27.452
-27.975
-28.422
-28.761
-28.935
-28.749
-27.981
-26.496
-24.162
-20.832
-16.611
-11.719
-6.402
-1.217
3.129
6.092
7.339
6.716
5.221
4.115
3.774
5.524
9.723
16.443
28.494
47.283
74.009
110.024
151.895
195.631
237.296
271.639
296.668
311.312
313.877
304.161
282.161
248.415
205.099
153.114
91.726
22.63
-50.514
-119.502
-172.514
-203.976
-213.382
-205.216
-187.991
-164.965
-137.543
-108.011
-78.782
-55.173
-40.532
-33.64
-30.632
-26.598
-19.216
-9.76
-1.179
4.217
5.812
4.57
2.328
0.058
-1.953
-3.358
-4.157
-4.273
-3.484
-2.01
-0.31
1.401
2.948
4.121
4.913
5.326
5.343
5.138
4.967
4.954
5.175
5.664
6.362
7.222
8.22
9.287
10.341
11.328
12.201
12.929
13.518
13.97
14.283
14.46
14.503
14.417
14.216
13.922
13.548
13.109
12.62
12.087
11.523
10.942
10.357
9.779
9.214
8.669
8.149
7.659
7.205
6.789
6.41
6.063
5.745
5.454
5.188
4.942
4.711
4.489
4.269
4.043
3.803
3.538
3.237
2.886
2.474
1.987
1.415
0.744
-0.035
-0.933
-1.962
-3.128
-4.442
-5.909
-7.537
-9.331
-11.296
-13.434
-15.747
-18.235
-20.896
-23.729
-26.729
-29.89
-33.204
-36.663
-40.257
-43.974
-47.802
-51.725
-55.728
-59.793
-63.903
-68.037
-72.176
-76.298
-80.381
-84.403
-88.343
-92.178
-95.886
-99.446
-102.838
-106.041
-109.037
-111.807
-114.335
-116.605
-118.603
-120.315
-121.732
-122.842
-123.639
-124.115
-124.266
-124.089
-123.583
-122.749
-121.59
-120.109
-118.313
-116.209
-113.808
-111.12
-108.157
-104.934
-101.467
-97.772
-93.868
-89.772
-85.505
-81.088
-76.541
-71.885
-67.142
-62.334
-57.48
-52.603
-47.724
-42.861
-38.036
-33.266
-28.571
-23.967
-19.472
-15.1
-10.867
-6.785
-2.866
0.878
4.438
7.805
10.973
13.935
16.687
19.227
21.551
23.66
25.555
27.238
28.711
29.981
31.053
31.934
32.632
33.156
33.515
33.72
33.782
33.711
33.52
33.22
32.824
32.345
31.796
31.19
30.539
29.857
29.157
28.451
27.751
27.069
26.416
25.802
25.238
24.734
24.3
23.943
23.672
23.496
23.42
23.45
23.592
23.85
24.224
24.719
25.333
26.068
26.922
27.894
28.981
30.182
31.491
32.906
34.421
36.029
37.723
39.494
41.334
43.233
45.182
47.17
49.188
51.225
53.272
55.319
57.354
59.367
61.345
63.276
65.146
66.942
68.649
70.255
71.747
73.115
74.351
75.447
76.396
77.192
77.832
78.312
78.629
78.78
78.76
78.569
78.206
77.675
76.979
76.121
75.104
73.934
72.621
71.172
69.592
67.876
66.022
64.033
61.917
59.683
57.348
54.927
52.442
49.936
47.454
45.048
42.769
40.647
38.699
36.953
35.437
34.18
33.217
32.557
32.199
32.174
32.495
33.155
34.129
35.318
36.6
37.876
39.015
39.876
40.417
40.646
40.656
40.685
40.908
41.437
42.45
44.135
46.542
49.538
52.69
55.319
56.961
57.463
56.765
54.757
51.385
47.014
42.674
39.978
40.439
45.041
54.471
69.612
91.485
120.624
156.673
198.224
243.461
290.814
338.614
384.52
425.681
459.291
482.934
495.131
494.86
481.146
454.652
417.953
373.898
325.758
274.869
219.943
162.756
106.989
58.689
27.682
18.668
32.52
66.911
112.013
159.274
201.019
229.605
244.92
248.519
243.34
236.245
230.317
226.982
227.091
227.689
227.12
225.561
223.288
221.825
221.913
222.731
223.214
222.666
220.881
218.042
214.399
209.904
204.498
198.408
191.997
185.54
179.191
172.962
166.78
160.668
154.68
148.816
143.062
137.379
131.726
126.097
120.497
114.917
109.338
103.73
98.069
92.351
86.581
80.773
74.945
69.116
63.304
57.532
51.812
46.159
40.588
35.111
29.741
24.491
19.375
14.409
9.61
4.991
0.557
-3.686
-7.738
-11.601
-15.276
-18.769
-22.083
-25.224
-28.194
-30.998
-33.639
-36.122
-38.452
-40.635
-42.68
-44.592
-46.382
-48.058
-49.628
-51.102
-52.486
-53.789
-55.019
-56.181
-57.284
-58.333
-59.335
-60.294
-61.216
-62.106
-62.967
-63.802
-64.613
-65.402
-66.167
-66.91
-67.627
-68.317
-68.975
-69.6
-70.185
-70.727
-71.221
-71.662
-72.044
-72.362
-72.609
-72.781
-72.871
-72.873
-72.781
-72.59
-72.294
-71.888
-71.366
-70.724
-69.957
-69.061
-68.032
-66.866
-65.56
-64.11
-62.515
-60.771
-58.878
-56.834
-54.64
-52.295
-49.802
-47.162
-44.379
-41.455
-38.395
-35.203
-31.884
-28.443
-24.888
-21.223
-17.455
-13.591
-9.638
-5.603
-1.493
2.685
6.924
11.215
15.552
19.926
24.329
28.755
33.194
37.638
42.078
46.505
50.911
55.287
59.624
63.912
68.144
72.312
76.408
80.424
84.354
88.192
91.932
95.571
99.102
102.524
105.833
109.027
112.103
115.062
117.902
120.624
123.228
125.715
128.086
130.343
132.489
134.525
136.455
138.283
140.012
141.649
143.198
144.665
146.057
147.38
148.641
149.848
151.007
152.125
153.21
154.267
155.302
156.321
157.329
158.33
159.326
160.322
161.317
162.314
163.312
164.309
165.302
166.289
167.265
168.227
169.172
170.093
170.981
171.836
172.653
173.429
174.161
174.834
175.43
175.944
176.374
176.692
176.872
176.892
176.724
176.372
175.854
175.142
174.201
173.093
171.899
170.557
169.067
167.44
165.486
163.706
162.591
161.44
160.041
157.109
151.104
143.737
136.15
130.046
127.759
127.238
126.746
125.097
120.329
113.868
107.162
100.544
94.904
89.751
84.448
79.137
73.748
68.339
63.055
57.822
52.587
47.385
42.237
37.148
32.133
27.215
22.409
17.746
13.254
8.932
4.785
0.824
-2.939
-6.483
-9.79
-12.854
-15.665
-18.216
-20.504
-22.534
-24.322
-25.909
-27.337
-28.648
-29.879
-31.062
-32.221
-33.378
-34.561
-35.801
-37.128
-38.566
-40.131
-41.83
-43.66
-45.597
-47.581
-49.531
-51.324
-52.807
-53.905
-54.605
-54.97
-55.166
-55.324
-55.493
-55.824
-56.531
-57.578
-58.747
-59.596
-59.4
-57.672
-54.246
-48.844
-41.207
-31.678
-21.008
-10.377
-1.669
3.495
3.912
-2.002
-14.996
-34.175
-58.68
-87.251
-119.77
-158.568
-203.541
-251.531
-295.645
-325.906
-337.247
-330.259
-310.888
-289.186
-271.325
-259.512
-253.132
-248.618
-244.436
-240.914
-238.377
-237.752
-238.907
-240.597
-242.018
-242.732
-242.592
-241.847
-240.777
-239.551
-238.458
-237.857
-237.926
-238.691
-240.073
-241.896
-244.005
-246.284
-248.634
-250.966
-253.234
-255.422
-257.522
-259.546
-261.503
-263.402
-265.247
-267.039
-268.786
-270.5
-272.215
-273.97
-275.801
-277.749
-279.831
-282.051
-284.405
-286.886
-289.479
-292.172
-294.947
-297.777
-300.647
-303.545
-306.458
-309.374
-312.274
-315.135
-317.935
-320.652
-323.268
-325.767
-328.133
-330.355
-332.422
-334.329
-336.07
-337.641
-339.038
-340.254
-341.286
-342.129
-342.778
-343.231
-343.486
-343.542
-343.4
-343.061
-342.529
-341.806
-340.896
-339.803
-338.531
-337.084
-335.463
-333.673
-331.716
-329.593
-327.307
-324.859
-322.25
-319.48
-316.549
-313.457
-310.201
-306.78
-303.191
-299.429
-295.491
-291.372
-287.068
-282.573
-277.884
-272.994
-267.898
-262.593
-257.073
-251.333
-245.37
-239.178
-232.755
-226.095
-219.196
-212.056
-204.673
-197.047
-189.177
-181.065
-172.713
-164.124
-155.303
-146.254
-136.984
-127.501
-117.814
-107.932
-97.867
-87.632
-77.238
-66.702
-56.037
-45.259
-34.386
-23.434
-12.421
-1.365
9.717
20.805
31.881
42.928
53.926
64.859
75.707
86.455
97.086
107.582
117.929
128.111
138.114
147.924
157.528
166.913
176.067
184.98
193.641
202.04
210.17
218.021
225.589
232.866
239.848
246.53
252.91
258.984
264.752
270.211
275.363
280.208
284.746
288.981
292.913
296.548
299.887
302.936
305.697
308.176
310.378
312.308
313.971
315.373
316.52
317.418
318.074
318.496
318.691
318.667
318.432
317.996
317.366
316.552
315.561
314.404
313.089
311.624
310.02
308.285
306.429
304.46
302.387
300.22
297.966
295.634
293.23
290.762
288.235
285.655
283.029
280.362
277.659
274.923
272.159
269.373
266.567
263.743
260.903
258.047
255.174
252.285
249.378
246.45
243.499
240.523
237.519
234.485
231.416
228.307
225.153
221.947
218.682
215.352
211.947
208.458
204.876
201.194
197.408
193.511
189.497
185.363
181.104
176.721
172.214
167.583
162.826
157.94
152.926
147.788
142.528
137.148
131.646
126.022
120.279
114.428
108.476
102.426
96.273
90.004
83.614
77.107
70.484
63.75
56.907
49.968
42.968
35.961
29.006
22.144
15.398
8.775
2.289
-4.047
-10.207
-16.163
-21.905
-27.412
-32.659
-37.631
-42.322
-46.768
-51.08
-55.391
-59.863
-64.678
-69.891
-75.477
-81.351
-87.298
-93.167
-98.915
-104.381
-109.379
-113.973
-118.378
-123.098
-128.895
-136.106
-144.662
-154.519
-165.642
-177.795
-190.474
-202.507
-212.213
-218.471
-220.761
-218.709
-211.824
-199.515
-181.593
-158.81
-132.637
-104.256
-74.46
-43.957
-14.613
10.467
29.418
41.392
46.899
47.834
42.487
27.493
1.42
-37.806
-88.581
-146.815
-210.861
-276.386
-337.394
-387.625
-420.1
-432.169
-426.383
-409.018
-386.694
-363.39
-340.708
-317.831
-294.08
-270.479
-248.512
-230.091
-216.729
-208.538
-204.48
-203.114
-203.152
-203.423
-203.342
-202.586
-200.547
-197.009
-192.318
-186.991
-181.785
-177.564
-174.707
-173.362
-173.787
-175.987
-179.819
-185.103
-191.402
-198.198
-205.169
-212.094
-218.786
-225.144
-231.034
-236.307
-240.926
-244.889
-248.189
-250.833
-252.811
-254.115
-254.782
-254.877
-254.471
-253.658
-252.534
-251.172
-249.632
-247.975
-246.253
-244.519
-242.813
-241.158
-239.563
-238.036
-236.582
-235.205
-233.899
-232.65
-231.437
-230.234
-229.012
-227.755
-226.455
-225.112
-223.729
-222.313
-220.87
-219.416
-217.971
-216.553
-215.176
-213.851
-212.587
-211.398
-210.297
-209.298
-208.414
-207.653
-207.021
-206.52
-206.15
-205.91
-205.794
-205.795
-205.901
-206.103
-206.391
-206.754
-207.183
-207.666
-208.189
-208.739
-209.302
-209.863
-210.406
-210.914
-211.369
-211.753
-212.049
-212.239
-212.306
-212.234
-212.006
-211.608
-211.024
-210.241
-209.247
-208.029
-206.577
-204.882
-202.936
-200.732
-198.268
-195.539
-192.544
-189.283
-185.757
-181.97
-177.926
-173.63
-169.088
-164.31
-159.304
-154.081
-148.654
-143.034
-137.237
-131.277
-125.171
-118.936
-112.588
-106.146
-99.628
-93.051
-86.434
-79.796
-73.154
-66.525
-59.928
-53.378
-46.893
-40.487
-34.177
-27.975
-21.894
-15.948
-10.147
-4.502
0.977
6.283
11.407
16.344
21.089
25.636
29.983
34.127
38.069
41.808
45.346
48.683
51.825
54.773
57.533
60.109
62.508
64.735
66.798
68.702
70.457
72.069
73.546
74.897
76.128
77.25
78.268
79.193
80.031
80.791
81.481
82.108
82.68
83.206
83.692
84.146
84.574
84.983
85.378
85.767
86.153
86.543
86.94
87.35
87.776
88.223
88.695
89.196
89.728
90.295
90.899
91.544
92.231
92.962
93.739
94.563
95.437
96.362
97.338
98.368
99.452
100.589
101.781
103.028
104.327
105.678
107.078
108.525
110.016
111.549
113.12
114.724
116.357
118.015
119.691
121.38
123.074
124.761
126.433
128.079
129.689
131.253
132.76
134.198
135.56
136.838
138.024
139.109
140.083
140.934
141.652
142.225
142.642
142.889
142.956
142.833
142.515
141.999
141.282
140.358
139.218
137.85
136.246
134.407
132.329
130.016
127.482
124.743
121.829
118.782
115.631
112.406
109.131
105.824
102.514
99.227
95.979
92.795
89.695
86.684
83.78
80.98
78.241
75.525
72.775
69.921
66.935
63.779
60.39
56.729
52.733
48.355
43.613
38.487
32.927
26.987
20.755
14.421
8.373
2.925
-1.688
-5.135
-7.207
-7.907
-7.315
-5.793
-3.961
-2.251
-1.055
-0.837
-1.689
-3.256
-4.874
-5.41
-3.553
1.705
11.472
27.002
49.012
77.541
111.888
150.553
191.748
233.728
274.191
310.239
339.185
358.75
367.259
363.764
347.843
319.547
280.562
234.266
183.303
130.018
76.141
22.072
-28.567
-70.292
-99.4
-112.273
-109.637
-96.535
-75.713
-50.139
-22.561
6.095
31.109
46.828
50.775
43.366
30.066
18.067
11.611
11.027
13.375
15.851
17.657
19.601
23.054
28.05
33.463
38.451
42.566
45.844
48.562
50.638
51.966
52.734
53.322
54.09
55.22
56.726
58.537
60.659
63.146
66.016
69.237
72.743
76.48
80.416
84.545
88.86
93.327
97.899
102.519
107.124
111.67
116.13
120.476
124.693
128.762
132.662
136.382
139.919
143.271
146.435
149.406
152.173
154.731
157.084
159.24
161.207
162.992
164.596
166.021
167.273
168.357
169.277
170.039
170.644
171.099
171.412
171.594
171.657
171.613
171.472
171.248
170.952
170.598
170.198
169.764
169.307
168.838
168.37
167.913
167.477
167.072
166.706
166.387
166.123
165.919
165.781
165.711
165.714
165.789
165.939
166.163
166.459
166.826
167.261
167.759
168.316
168.927
169.585
170.284
171.016
171.773
172.547
173.331
174.115
174.892
175.653
176.39
177.097
177.766
178.391
178.966
179.486
179.949
180.349
180.684
180.954
181.156
181.292
181.363
181.37
181.317
181.208
181.046
180.838
180.59
180.307
179.997
179.668
179.327
178.982
178.641
178.312
178.003
177.721
177.474
177.269
177.112
177.009
176.965
176.983
177.067
177.219
177.44
177.729
178.086
178.509
178.993
179.535
180.128
180.767
181.442
182.146
182.869
183.599
184.327
185.039
185.723
186.367
186.956
187.478
187.92
188.266
188.505
188.623
188.608
188.447
188.13
187.645
186.983
186.135
185.094
183.855
182.41
180.758
178.896
176.822
174.537
172.043
169.343
166.44
163.341
160.053
156.584
152.943
149.142
145.192
141.106
136.896
132.577
128.163
123.669
119.11
114.501
109.859
105.199
100.538
95.891
91.273
86.7
82.187
77.746
73.39
69.129
64.975
60.937
57.024
53.242
49.597
46.095
42.739
39.534
36.48
33.577
30.823
28.214
25.747
23.417
21.217
19.14
17.177
15.32
13.558
11.884
10.285
8.75
7.266
5.82
4.396
2.981
1.556
0.107
-1.382
-2.924
-4.532
-6.218
-7.991
-9.861
-11.832
-13.91
-16.103
-18.419
-20.864
-23.444
-26.163
-29.018
-32.011
-35.14
-38.401
-41.786
-45.284
-48.884
-52.582
-56.38
-60.285
-64.296
-68.4
-72.581
-76.823
-81.109
-85.419
-89.718
-93.954
-98.077
-102.051
-105.86
-109.501
-112.961
-116.214
-119.222
-121.948
-124.385
-126.547
-128.436
-130.042
-131.356
-132.378
-133.173
-133.864
-134.562
-135.355
-136.297
-137.394
-138.709
-140.351
-142.336
-144.592
-146.924
-148.993
-150.579
-151.592
-151.85
-151.192
-149.639
-147.303
-144.609
-142.318
-140.943
-140.832
-142.407
-145.708
-150.284
-155.404
-159.798
-161.871
-160.374
-154.02
-141.385
-121.697
-94.946
-61.864
-24.044
16.614
58.226
98.31
133.852
161.915
179.871
185.906
178.835
158.227
124.948
80.742
28.079
-31.468
-98.501
-172.819
-251.506
-327.779
-390.696
-431.432
-446.961
-439.814
-417.126
-385.636
-349.932
-313.118
-278.721
-251.935
-236.143
-232.692
-239.037
-248.131
-255.188
-257.831
-255.753
-252.202
-248.843
-245.141
-240.528
-233.881
-224.988
-215.017
-205.148
-195.982
-187.78
-180.641
-174.491
-169.318
-165.06
-161.355
-157.746
-153.951
-149.811
-145.26
-140.343
-135.056
-129.365
-123.303
-116.93
-110.311
-103.507
-96.544
-89.426
-82.166
-74.806
-67.398
-60.009
-52.703
-45.52
-38.482
-31.611
-24.919
-18.422
-12.13
-6.045
-0.155
5.548
11.063
16.388
21.521
26.464
31.228
35.824
40.258
44.534
48.652
52.611
56.412
60.052
63.529
66.835
69.966
72.915
75.681
78.261
80.654
82.856
84.865
86.679
88.296
89.714
90.932
91.947
92.757
93.363
93.764
93.96
93.954
93.747
93.342
92.742
91.953
90.979
89.826
88.501
87.012
85.369
83.581
81.66
79.617
77.464
75.217
72.888
70.494
68.048
65.568
63.068
60.565
58.075
55.612
53.193
50.833
48.546
46.346
44.246
42.259
40.395
38.666
37.079
35.642
34.361
33.241
32.283
31.489
30.859
30.389
30.077
29.916
29.898
30.015
30.256
30.608
31.057
31.588
32.183
32.824
33.494
34.171
34.836
35.467
36.044
36.544
36.947
37.231
37.376
37.361
37.168
36.778
36.174
35.34
34.263
32.93
31.331
29.457
27.301
24.858
22.127
19.105
15.796
12.203
8.331
4.19
-0.209
-4.856
-9.734
-14.828
-20.118
-25.586
-31.21
-36.966
-42.832
-48.781
-54.788
-60.826
-66.867
-72.884
-78.849
-84.734
-90.512
-96.157
-101.642
-106.943
-112.036
-116.9
-121.513
-125.857
-129.914
-133.669
-137.107
-140.219
-142.994
-145.425
-147.508
-149.239
-150.62
-151.652
-152.339
-152.687
-152.703
-152.398
-151.782
-150.869
-149.675
-148.214
-146.507
-144.571
-142.429
-140.103
-137.615
-134.989
-132.247
-129.415
-126.515
-123.571
-120.605
-117.64
-114.696
-111.796
-108.958
-106.204
-103.55
-101.013
-98.607
-96.346
-94.242
-92.304
-90.54
-88.956
-87.558
-86.35
-85.335
-84.516
-83.893
-83.465
-83.23
-83.183
-83.32
-83.633
-84.112
-84.746
-85.526
-86.439
-87.475
-88.622
-89.867
-91.2
-92.609
-94.084
-95.612
-97.181
-98.777
-100.388
-102.001
-103.604
-105.185
-106.726
-108.216
-109.643
-110.997
-112.272
-113.458
-114.544
-115.523
-116.391
-117.145
-117.782
-118.297
-118.679
-118.924
-119.038
-119.034
-118.935
-118.758
-118.514
-118.214
-117.872
-117.494
-117.073
-116.583
-115.974
-115.205
-114.259
-113.128
-111.822
-110.353
-108.711
-106.88
-104.839
-102.557
-100.011
-97.185
-94.057
-90.651
-87.033
-83.315
-79.693
-76.386
-73.507
-71.081
-69.026
-67.132
-65.24
-63.295
-61.19
-58.762
-56.006
-53.143
-50.7
-49.517
-50.237
-53.047
-57.971
-65.083
-74.363
-85.421
-97.22
-108.028
-116.178
-120.576
-120.426
-114.705
-102.155
-82.024
-54.475
-21.215
15.091
52.961
91.287
129.087
166.111
199.063
222.924
233.592
225.896
199.568
160.194
112.914
63.967
15.625
-35.868
-91.105
-147.634
-198.926
-234.45
-249.127
-243.509
-222.808
-196.446
-170.692
-148.899
-132.294
-118.632
-106.875
-97.479
-91.052
-89.119
-91.91
-97.712
-104.498
-110.845
-116.059
-120.071
-122.856
-124.029
-123.464
-121.694
-119.62
-117.898
-116.795
-116.264
-116.157
-116.518
-117.385
-118.603
-119.856
-120.872
-121.519
-121.774
-121.696
-121.297
-120.546
-119.442
-118.016
-116.309
-114.356
-112.192
-109.83
-107.299
-104.642
-101.888
-99.058
-96.168
-93.221
-90.22
-87.165
-84.045
-80.851
-77.586
-74.254
-70.864
-67.42
-63.923
-60.368
-56.758
-53.09
-49.362
-45.57
-41.712
-37.789
-33.806
-29.771
-25.693
-21.582
-17.445
-13.29
-9.122
-4.948
-0.774
3.395
7.554
11.698
15.822
19.916
23.973
27.987
31.949
35.852
39.691
43.46
47.152
50.764
54.293
57.734
61.084
64.341
67.504
70.57
73.538
76.407
79.179
81.853
84.431
86.916
89.312
91.622
93.85
96.002
98.081
100.095
102.048
103.945
105.793
107.597
109.362
111.096
112.804
114.492
116.165
117.829
119.488
121.146
122.808
124.474
126.148
127.831
129.522
131.221
132.928
134.641
136.356
138.071
139.781
141.48
143.163
144.822
146.451
148.039
149.58
151.062
152.478
153.815
155.065
156.217
157.261
158.186
158.983
159.641
160.153
160.509
160.7
160.721
160.565
160.226
159.7
158.984
158.076
156.974
155.68
154.193
152.517
150.655
148.613
146.396
144.011
141.466
138.771
135.937
132.974
129.895
126.713
123.441
120.094
116.686
113.231
109.747
106.247
102.747
99.262
95.809
92.401
89.053
85.779
82.592
79.506
76.532
73.681
70.964
68.39
65.967
63.702
61.603
59.675
57.921
56.346
54.951
53.739
52.709
51.861
51.195
50.706
50.394
50.254
50.283
50.476
50.829
51.336
51.992
52.791
53.728
54.796
55.988
57.3
58.723
60.252
61.88
63.601
65.409
67.295
69.255
71.281
73.367
75.506
77.691
79.917
82.176
84.462
86.768
89.09
91.419
93.749
96.074
98.386
100.677
102.94
105.164
107.34
109.457
111.505
113.471
115.343
117.109
118.754
120.265
121.628
122.829
123.854
124.686
125.313
125.718
125.888
125.81
125.469
124.853
123.949
122.746
121.234
119.405
117.248
114.757
111.923
108.742
105.209
101.323
97.082
92.49
87.554
82.284
76.695
70.802
64.623
58.177
51.484
44.564
37.435
30.116
22.627
14.989
7.227
-0.635
-8.572
-16.564
-24.59
-32.626
-40.648
-48.632
-56.554
-64.388
-72.103
-79.656
-86.993
-94.053
-100.779
-107.127
-113.053
-118.506
-123.43
-127.768
-131.481
-134.564
-137.009
-138.807
-139.967
-140.492
-140.442
-139.953
-139.091
-137.882
-136.319
-134.272
-131.641
-128.436
-124.534
-119.753
-114.222
-108.128
-101.778
-95.964
-91.373
-88.456
-87.938
-89.854
-93.041
-96.583
-99.861
-103.186
-108.142
-114.679
-119.564
-116.518
-99.394
-65.812
-18.356
34.799
85.554
129.753
165.25
193.549
215.967
229.095
230.335
217.443
188.553
147.634
97.481
38.717
-25.011
-91.682
-155.427
-205.434
-236.183
-245.425
-235.855
-216.705
-194.012
-170.696
-148.426
-125.66
-102.181
-79.806
-59.991
-44.548
-34.664
-30.076
-29.637
-31.849
-35.335
-38.837
-41.657
-43.385
-43.351
-41.258
-37.337
-31.999
-25.93
-19.936
-14.375
-9.41
-5.302
-2.112
0.217
1.784
2.901
3.946
5.095
6.412
7.936
9.624
11.461
13.455
15.544
17.641
19.694
21.67
23.558
25.366
27.079
28.656
30.068
31.294
32.323
33.159
33.806
34.267
34.548
34.658
34.608
34.411
34.076
33.607
33.009
32.291
31.465
30.546
29.55
28.489
27.373
26.212
25.015
23.787
22.534
21.258
19.964
18.656
17.34
16.019
14.699
13.382
12.071
10.768
9.474
8.188
6.909
5.636
4.367
3.1
1.835
0.569
-0.699
-1.973
-3.253
-4.544
-5.846
-7.164
-8.499
-9.856
-11.238
-12.648
-14.088
-15.563
-17.074
-18.625
-20.218
-21.855
-23.538
-25.268
-27.046
-28.872
-30.746
-32.668
-34.636
-36.649
-38.705
-40.801
-42.935
-45.103
-47.301
-49.525
-51.769
-54.031
-56.303
-58.58
-60.858
-63.129
-65.388
-67.629
-69.844
-72.028
-74.172
-76.271
-78.317
-80.303
-82.222
-84.067
-85.832
-87.509
-89.093
-90.579
-91.96
-93.233
-94.392
-95.435
-96.358
-97.159
-97.834
-98.384
-98.805
-99.1
-99.267
-99.308
-99.224
-99.019
-98.695
-98.256
-97.705
-97.049
-96.292
-95.439
-94.497
-93.473
-92.373
-91.205
-89.977
-88.696
-87.369
-86.006
-84.614
-83.2
-81.771
-80.336
-78.899
-77.468
-76.049
-74.645
-73.263
-71.906
-70.578
-69.282
-68.019
-66.791
-65.6
-64.443
-63.32
-62.229
-61.167
-60.131
-59.117
-58.118
-57.131
-56.149
-55.166
-54.174
-53.166
-52.135
-51.072
-49.969
-48.817
-47.609
-46.336
-44.991
-43.565
-42.053
-40.448
-38.743
-36.934
-35.015
-32.981
-30.83
-28.557
-26.161
-23.641
-20.996
-18.226
-15.334
-12.322
-9.193
-5.953
-2.606
0.843
4.386
8.016
11.727
15.509
19.354
23.253
27.194
31.167
35.16
39.163
43.163
47.15
51.112
55.038
58.917
62.739
66.494
70.173
73.766
77.261
80.65
83.925
87.078
90.101
92.986
95.729
98.324
100.769
103.061
105.195
107.17
108.984
110.633
112.117
113.43
114.572
115.54
116.335
116.958
117.413
117.704
117.837
117.819
117.66
117.366
116.944
116.394
115.723
114.935
114.036
113.033
111.932
110.736
109.454
108.098
106.68
105.207
103.679
102.081
100.409
98.668
96.867
95.022
93.146
91.249
89.359
87.522
85.787
84.202
82.791
81.546
80.465
79.558
78.842
78.349
78.083
78.007
78.084
78.293
78.611
79.018
79.454
79.784
79.864
79.562
78.781
77.48
75.655
73.267
70.249
66.613
62.456
57.997
53.577
49.458
45.725
42.465
39.807
37.791
36.511
35.872
35.307
34.295
32.637
30.299
27.634
25.33
23.714
23.292
25.331
31.061
41.574
57.8
79.497
105.634
135.725
168.302
200.982
232.104
258.895
279.616
294.11
299.742
294.142
275.073
240.608
194.495
142.24
88.246
36.451
-13.35
-62.44
-108.04
-146.086
-172.167
-181.756
-176.311
-161.54
-142.559
-125.457
-113.127
-104.115
-97.618
-92.638
-88.508
-86.13
-85.532
-85.706
-85.663
-84.63
-82.33
-79.006
-75.031
-70.628
-66.032
-61.642
-57.865
-54.915
-52.828
-51.483
-50.674
-50.267
-50.163
-50.228
-50.306
-50.245
-49.93
-49.31
-48.379
-47.133
-45.557
-43.628
-41.34
-38.71
-35.777
-32.581
-29.156
-25.527
-21.727
-17.796
-13.781
-9.74
-5.71
-1.716
2.224
6.1
9.899
13.606
17.218
20.74
24.176
27.526
30.791
33.962
37.039
40.022
42.916
45.722
48.439
51.06
53.583
56.002
58.313
60.507
62.577
64.512
66.304
67.947
69.436
70.767
71.935
72.933
73.76
74.41
74.881
75.168
75.267
75.175
74.889
74.406
73.726
72.848
71.772
70.497
69.025
67.359
65.501
63.454
61.221
58.806
56.216
53.456
50.534
47.456
44.232
40.869
37.377
33.766
30.047
26.23
22.326
18.346
14.304
10.21
6.078
1.921
-2.248
-6.415
-10.568
-14.691
-18.772
-22.798
-26.755
-30.631
-34.412
-38.088
-41.646
-45.077
-48.369
-51.514
-54.502
-57.326
-59.979
-62.456
-64.749
-66.856
-68.773
-70.498
-72.027
-73.362
-74.5
-75.443
-76.193
-76.751
-77.121
-77.306
-77.31
-77.14
-76.8
-76.296
-75.636
-74.827
-73.876
-72.79
-71.578
-70.247
-68.806
-67.262
-65.624
-63.9
-62.096
-60.22
-58.278
-56.279
-54.226
-52.126
-49.984
-47.805
-45.592
-43.35
-41.081
-38.789
-36.476
-34.144
-31.795
-29.431
-27.051
-24.657
-22.248
-19.825
-17.388
-14.935
-12.467
-9.982
-7.48
-4.96
-2.422
0.135
2.71
5.305
7.917
10.548
13.195
15.857
18.532
21.217
23.909
26.603
29.295
31.981
34.655
37.311
39.944
42.548
45.114
47.637
50.109
52.523
54.871
57.144
59.334
61.434
63.435
65.329
67.109
68.766
70.294
71.685
72.933
74.031
74.972
75.752
76.365
76.807
77.075
77.166
77.078
76.811
76.365
75.742
74.943
73.971
72.829
71.52
70.049
68.42
66.638
64.71
62.643
60.442
58.116
55.673
53.121
50.468
47.725
44.898
41.996
39.028
36.003
32.928
29.813
26.665
23.495
20.309
17.116
13.923
10.738
7.565
4.41
1.274
-1.841
-4.935
-8.006
-11.054
-14.081
-17.085
-20.065
-23.019
-25.942
-28.832
-31.689
-34.51
-37.3
-40.059
-42.791
-45.497
-48.182
-50.844
-53.485
-56.105
-58.696
-61.256
-63.784
-66.283
-68.767
-71.248
-73.726
-76.203
-78.67
-81.113
-83.515
-85.851
-88.081
-90.171
-92.085
-93.796
-95.294
-96.572
-97.627
-98.448
-99.004
-99.274
-99.26
-98.976
-98.459
-97.746
-96.877
-95.908
-94.924
-94.025
-93.312
-92.867
-92.75
-92.998
-93.618
-94.652
-96.18
-98.194
-100.602
-103.195
-105.617
-107.581
-108.879
-109.234
-108.395
-106.257
-102.855
-98.588
-94.168
-90.203
-87.207
-85.569
-85.26
-85.923
-86.943
-87.123
-84.952
-78.917
-67.412
-49.247
-24.051
7.865
45.541
87.29
130.986
173.938
212.851
244.646
266.758
277.356
275.461
260.545
232.777
193.633
145.65
91.85
35.6
-20.09
-72.485
-118.398
-155.161
-181.484
-196.958
-202.117
-198.213
-186.307
-167.919
-145.801
-122.718
-100.76
-81.686
-66.348
-55.109
-48.709
-47.286
-49.838
-55.083
-61.684
-68.271
-74.202
-79.102
-82.241
-83.265
-82.326
-79.743
-76.166
-72.368
-68.647
-65.113
-61.977
-59.26
-56.94
-54.998
-53.189
-51.185
-48.845
-46.117
-42.992
-39.553
-35.837
-31.844
-27.642
-23.32
-18.953
-14.616
-10.355
-6.196
-2.166
1.704
5.384
8.846
12.07
15.049
17.781
20.268
22.505
24.478
26.18
27.605
28.754
29.63
30.236
30.576
30.658
30.49
30.083
29.453
28.607
27.556
26.309
24.874
23.262
21.487
19.565
17.51
15.339
13.067
10.711
8.288
5.813
3.3
0.762
-1.788
-4.338
-6.878
-9.394
-11.878
-14.317
-16.702
-19.025
-21.276
-23.449
-25.537
-27.535
-29.437
-31.241
-32.945
-34.546
-36.044
-37.438
-38.728
-39.915
-41
-41.986
-42.873
-43.666
-44.366
-44.977
-45.501
-45.943
-46.306
-46.592
-46.804
-46.946
-47.019
-47.026
-46.969
-46.851
-46.674
-46.439
-46.149
-45.805
-45.41
-44.966
-44.473
-43.934
-43.35
-42.721
-42.05
-41.335
-40.579
-39.782
-38.945
-38.068
-37.152
-36.198
-35.206
-34.178
-33.114
-32.017
-30.887
-29.725
-28.535
-27.317
-26.073
-24.807
-23.52
-22.215
-20.894
-19.56
-18.216
-16.865
-15.508
-14.148
-12.788
-11.43
-10.076
-8.73
-7.393
-6.068
-4.757
-3.463
-2.189
-0.937
0.29
1.49
2.662
3.802
4.909
5.982
7.018
8.016
8.976
9.895
10.775
11.614
12.412
13.17
13.887
14.565
15.204
15.804
16.367
16.894
17.385
17.843
18.267
18.66
19.023
19.359
19.668
19.954
20.219
20.466
20.697
20.917
21.128
21.334
21.538
21.745
21.957
22.181
22.418
22.674
22.951
23.254
23.585
23.949
24.349
24.786
25.266
25.79
26.361
26.983
27.658
28.388
29.176
30.023
30.933
31.906
32.944
34.047
35.217
36.453
37.756
39.125
40.559
42.057
43.617
45.237
46.915
48.646
50.427
52.254
54.122
56.029
57.969
59.939
61.933
63.948
65.978
68.019
70.064
72.108
74.144
76.164
78.161
80.129
82.061
83.949
85.786
87.565
89.28
90.924
92.489
93.969
95.354
96.637
97.812
98.872
99.809
100.616
101.288
101.821
102.216
102.467
102.574
102.531
102.338
101.993
101.496
100.843
100.034
99.068
97.949
96.686
95.287
93.76
92.111
90.348
88.478
86.509
84.445
82.286
80.031
77.673
75.217
72.678
70.072
67.414
64.717
61.994
59.265
56.561
53.899
51.286
48.725
46.218
43.794
41.494
39.355
37.421
35.724
34.279
33.11
32.232
31.625
31.256
31.055
30.927
30.837
30.75
30.614
30.454
30.309
30.259
30.517
31.237
32.473
34.358
36.969
40.132
43.595
46.891
49.296
50.33
49.657
46.838
41.785
34.945
27.08
19.44
13.648
11.086
13.071
21.003
35.654
56.96
84.219
116.087
150.68
185.807
218.946
247.251
268.073
279.517
280.446
269.972
248.299
217.271
178.463
133.69
84.706
31.421
-23.489
-74.09
-114.909
-140.273
-148.923
-145.157
-133.205
-117.301
-99.7
-80.129
-59.448
-38.684
-19.318
-3.493
7.782
13.852
14.614
11.244
5.1
-2.594
-10.5
-17.884
-24.303
-29.029
-31.69
-32.426
-31.572
-29.744
-27.669
-25.643
-23.761
-22.227
-21.106
-20.393
-20.062
-19.873
-19.491
-18.773
-17.679
-16.194
-14.38
-12.256
-9.807
-7.086
-4.189
-1.189
1.848
4.88
7.91
10.933
13.933
16.895
19.803
22.648
25.436
28.176
30.863
33.488
36.034
38.486
40.842
43.101
45.259
47.314
49.261
51.096
52.819
54.432
55.934
57.322
58.592
59.738
60.757
61.651
62.42
63.067
63.596
64.01
64.312
64.51
64.606
64.605
64.511
64.326
64.055
63.704
63.277
62.782
62.226
61.618
60.965
60.279
59.567
58.839
58.104
57.373
56.653
55.954
55.287
54.66
54.083
53.566
53.118
52.747
52.464
52.275
52.188
52.211
52.35
52.611
53.001
53.526
54.189
54.997
55.954
57.063
58.327
59.746
61.322
63.052
64.935
66.967
69.144
71.459
73.904
76.476
79.166
81.966
84.866
87.856
90.925
94.062
97.256
100.49
103.748
107.014
110.273
113.512
116.716
119.87
122.96
125.972
128.893
131.715
134.426
137.008
139.444
141.714
143.81
145.741
147.507
149.107
150.545
151.823
152.951
153.949
154.821
155.556
156.142
156.565
156.829
156.958
156.971
156.891
156.726
156.46
156.095
155.649
155.123
154.513
153.806
152.969
152.02
151.023
150.037
149.119
148.304
147.597
147.011
146.572
146.308
146.262
146.458
146.899
147.612
148.644
150.045
151.887
154.175
156.842
159.837
163.111
166.631
170.394
174.378
178.537
182.84
187.255
191.762
196.357
201.002
205.636
210.198
214.61
218.846
222.934
226.886
230.704
234.387
237.915
241.282
244.5
247.564
250.451
253.138
255.597
257.819
259.816
261.596
263.171
264.537
265.663
266.531
267.13
267.448
267.482
267.221
266.649
265.765
264.582
263.11
261.363
259.349
257.067
254.522
251.718
248.665
245.374
241.856
238.118
234.171
230.028
225.701
221.204
216.548
211.738
206.78
201.682
196.45
191.093
185.618
180.033
174.343
168.56
162.692
156.749
150.739
144.668
138.542
132.365
126.142
119.875
113.565
107.217
100.833
94.418
87.977
81.517
75.045
68.571
62.101
55.644
49.209
42.8
36.424
30.086
23.795
17.557
11.383
5.277
-0.754
-6.699
-12.551
-18.304
-23.959
-29.526
-35.014
-40.423
-45.754
-51.001
-56.157
-61.212
-66.148
-70.926
-75.505
-79.842
-83.9
-87.666
-91.138
-94.303
-97.146
-99.649
-101.797
-103.606
-105.098
-106.27
-107.127
-107.702
-108.051
-108.309
-108.64
-109.173
-110.055
-111.425
-113.324
-115.747
-118.627
-121.76
-124.947
-128.04
-130.796
-132.977
-134.62
-135.929
-137.313
-139.401
-142.608
-147.118
-153.25
-161.342
-171.208
-182.158
-192.908
-201.68
-207.037
-207.858
-202.848
-190.626
-170.417
-142.365
-107.658
-68.291
-26.278
16.173
56.335
91.078
117.382
133.033
136.733
127.747
106.312
74.108
33.502
-12.937
-63.82
-119.01
-177.069
-233.685
-281.549
-313.862
-327.782
-325.587
-314.382
-301.102
-289.885
-282.434
-277.628
-274.307
-272.514
-272.577
-275.198
-280.532
-287.894
-296.217
-304.352
-311.65
-317.923
-323.255
-327.959
-332.333
-336.641
-341.23
-346.41
-352.32
-358.994
-366.347
-374.193
-382.363
-390.688
-399.001
-407.197
-415.221
-423.045
-430.664
-438.067
-445.236
-452.173
-458.882
-465.366
-471.627
-477.663
-483.481
-489.117
-494.615
-500.021
-505.381
-510.717
-516.041
-521.37
-526.711
-532.068
-537.444
-542.831
-548.216
-553.6
-558.983
-564.364
-569.741
-575.102
-580.438
-585.742
-591.003
-596.21
-601.349
-606.403
-611.365
-616.24
-621.036
-625.763
-630.438
-635.079
-639.712
-644.373
-649.092
-653.891
-658.785
-663.779
-668.889
-674.136
-679.552
-685.166
-690.985
-697
-703.198
-709.554
-716.036
-722.593
-729.147
-735.611
-741.919
-748.025
-753.911
-759.572
-764.981
-770.103
-774.894
-779.309
-783.342
-787.012
-790.332
-793.348
-796.128
-798.771
-801.433
-804.273
-807.398
-810.898
-814.817
-819.176
-824.039
-829.469
-835.543
-842.366
-850
-858.497
-867.92
-878.27
-889.526
-901.631
-914.364
-927.444
-940.577
-953.39
-965.622
-977.093
-987.489
-996.51
-1004.045
-1010.114
-1015.057
-1019.379
-1023.218
-1026.535
-1029.313
-1031.38
-1032.414
-1031.634
-1027.496
-1018.271
-1002.723
-979.984
-949.619
-911.541
-865.759
-813.171
-755.729
-695.633
-634.958
-575.406
-518.05
-463.839
-413.846
-368.318
-326.703
-288.215
-251.813
-216.819
-183.079
-150.275
-117.881
-85.8
-54.274
-23.766
4.956
31.488
55.798
77.738
97.133
113.944
128.217
140.255
150.588
159.564
167.361
174.149
180.019
185.1
189.59
193.566
197.021
199.991
202.516
204.705
206.723
208.671
210.591
212.508
214.408
216.304
218.244
220.255
222.381
224.668
227.107
229.718
232.539
235.562
238.785
242.17
245.626
249.104
252.599
256.103
259.639
263.226
266.841
270.476
274.118
277.725
281.293
284.813
288.265
291.663
295.035
298.422
301.907
305.553
309.382
313.414
317.648
322.071
326.69
331.499
336.484
341.649
346.988
352.49
358.153
363.953
369.855
375.814
381.766
387.65
393.423
399.045
404.485
409.72
414.724
419.477
423.97
428.189
432.116
435.736
439.031
441.986
444.593
446.847
448.745
450.288
451.476
452.309
452.787
452.913
452.688
452.116
451.202
449.948
448.361
446.449
444.22
441.682
438.845
435.722
432.324
428.668
424.768
420.643
416.313
411.797
407.114
402.277
397.291
392.164
386.912
381.554
376.112
370.611
365.079
359.547
354.06
348.662
343.396
338.301
333.398
328.702
324.23
320.008
316.067
312.435
309.119
306.103
303.378
300.932
298.767
296.879
295.209
293.68
292.204
290.688
289.076
287.353
285.471
283.342
280.964
278.398
275.82
273.569
271.891
270.923
270.852
271.817
273.777
276.591
279.867
282.926
285.303
286.658
286.598
285.115
282.65
279.934
278.195
278.867
283.03
291.835
306.576
327.879
355.746
389.496
427.576
468.333
510.21
550.992
588.06
618.989
641.469
653.939
655.464
645.606
625.111
595.404
558.387
514.366
462.158
403.061
340.481
282.379
239.506
215.926
211.834
223.449
242.45
266.107
292.166
316.291
337.331
351.764
357.858
358.756
356.383
353.267
351.058
348.677
345.776
342.004
337.326
332.865
329.188
326.586
324.935
323.29
321.023
317.924
313.904
309.156
303.815
297.813
291.27
284.47
277.609
270.862
264.314
257.917
251.659
245.575
239.66
233.897
228.272
222.748
217.303
211.928
206.603
201.296
195.974
190.61
185.195
179.725
174.207
168.647
163.058
157.456
151.863
146.288
140.738
135.224
129.752
124.336
118.99
113.727
108.561
103.509
98.582
93.791
89.144
84.644
80.293
76.093
72.041
68.139
64.386
60.783
57.331
54.029
50.877
47.872
45.012
42.293
39.707
37.25
34.914
32.691
30.574
28.555
26.628
24.785
23.019
21.324
19.692
18.117
16.591
15.109
13.664
12.25
10.862
9.494
8.141
6.801
5.471
4.147
2.827
1.512
0.199
-1.111
-2.417
-3.719
-5.015
-6.302
-7.578
-8.838
-10.08
-11.297
-12.486
-13.64
-14.756
-15.827
-16.849
-17.817
-18.726
-19.573
-20.352
-21.062
-21.697
-22.256
-22.736
-23.135
-23.451
-23.683
-23.832
-23.896
-23.877
-23.776
-23.595
-23.335
-22.998
-22.588
-22.108
-21.561
-20.951
-20.281
-19.557
-18.782
-17.961
-17.099
-16.199
-15.265
-14.302
-13.312
-12.299
-11.265
-10.211
-9.141
-8.054
-6.951
-5.833
-4.699
-3.547
-2.377
-1.187
0.027
1.267
2.535
3.836
5.174
6.551
7.974
9.445
10.968
12.549
14.191
15.898
17.673
19.521
21.445
23.447
25.53
27.695
29.944
32.278
34.696
37.197
39.78
42.443
45.182
47.993
50.872
53.815
56.815
59.866
62.962
66.096
69.261
72.447
75.648
78.854
82.059
85.252
88.425
91.571
94.681
97.748
100.764
103.723
106.618
109.443
112.193
114.861
117.445
119.939
122.34
124.648
126.859
128.974
130.993
132.918
134.749
136.491
138.147
139.719
141.213
142.631
143.979
145.26
146.481
147.645
148.758
149.825
150.851
151.841
152.799
153.73
154.636
155.519
156.381
157.223
158.046
158.849
159.631
160.391
161.126
161.836
162.516
163.163
163.769
164.328
164.832
165.27
165.631
165.903
166.075
166.135
166.071
165.876
165.54
165.055
164.414
163.611
162.639
161.492
160.161
158.638
156.92
155.002
152.885
150.569
148.054
145.343
142.443
139.361
136.102
132.664
129.04
125.229
121.239
117.081
112.771
108.326
103.762
99.111
94.419
89.734
85.106
80.571
76.139
71.833
67.683
63.723
60.005
56.548
53.341
50.391
47.716
45.341
43.289
41.516
39.917
38.39
36.832
35.187
33.42
31.428
29.165
26.666
24.031
21.532
19.469
17.982
17.231
17.436
18.548
20.382
22.595
24.446
25.342
25
22.99
18.938
13.083
6.089
-0.796
-5.717
-7.24
-4.342
4.328
20.083
43.459
74.245
111.097
151.758
194.383
237.257
277.825
313.136
340.648
358.185
364.606
359.671
342.682
313.851
275.43
230.079
180.098
126.474
68.582
7.324
-52.359
-102.993
-137.839
-152.998
-150.404
-135.848
-114.379
-91.566
-70.429
-51.686
-36.793
-24.507
-14.102
-5.89
0.779
4.526
4.979
3.08
-0.854
-5.207
-8.796
-11.349
-12.099
-10.828
-7.881
-3.536
1.638
6.913
11.995
16.749
20.95
24.554
27.64
30.353
32.99
35.893
39.181
42.811
46.747
50.908
55.246
59.75
64.33
68.843
73.19
77.299
81.101
84.552
87.545
89.911
91.552
92.425
92.549
92.02
90.905
89.23
87.031
84.339
81.19
77.641
73.723
69.442
64.827
59.922
54.806
49.6
44.378
39.171
33.974
28.738
23.434
18.062
12.612
7.072
1.439
-4.288
-10.089
-15.919
-21.75
-27.57
-33.378
-39.198
-45.03
-50.855
-56.644
-62.351
-67.939
-73.38
-78.643
-83.692
-88.5
-93.047
-97.324
-101.337
-105.084
-108.56
-111.755
-114.657
-117.26
-119.563
-121.566
-123.272
-124.685
-125.811
-126.658
-127.236
-127.557
-127.628
-127.457
-127.049
-126.412
-125.555
-124.488
-123.223
-121.773
-120.149
-118.367
-116.442
-114.39
-112.227
-109.968
-107.628
-105.225
-102.772
-100.288
-97.786
-95.283
-92.795
-90.336
-87.921
-85.566
-83.282
-81.085
-78.986
-76.996
-75.127
-73.387
-71.786
-70.331
-69.028
-67.883
-66.902
-66.086
-65.438
-64.96
-64.651
-64.511
-64.537
-64.726
-65.072
-65.569
-66.212
-66.991
-67.897
-68.923
-70.056
-71.286
-72.602
-73.991
-75.441
-76.939
-78.472
-80.026
-81.589
-83.147
-84.688
-86.2
-87.67
-89.089
-90.446
-91.731
-92.935
-94.052
-95.074
-95.994
-96.809
-97.515
-98.107
-98.585
-98.948
-99.195
-99.328
-99.349
-99.262
-99.069
-98.777
-98.391
-97.916
-97.361
-96.733
-96.039
-95.289
-94.491
-93.655
-92.791
-91.907
-91.014
-90.12
-89.235
-88.365
-87.52
-86.705
-85.928
-85.193
-84.508
-83.875
-83.3
-82.785
-82.333
-81.945
-81.624
-81.368
-81.177
-81.05
-80.985
-80.978
-81.028
-81.129
-81.278
-81.472
-81.704
-81.972
-82.269
-82.59
-82.93
-83.283
-83.643
-84.004
-84.362
-84.714
-85.055
-85.383
-85.697
-85.995
-86.278
-86.544
-86.796
-87.033
-87.257
-87.468
-87.671
-87.867
-88.063
-88.262
-88.472
-88.699
-88.952
-89.238
-89.568
-89.947
-90.385
-90.887
-91.461
-92.114
-92.851
-93.678
-94.599
-95.618
-96.74
-97.969
-99.308
-100.757
-102.315
-103.983
-105.757
-107.637
-109.619
-111.699
-113.872
-116.135
-118.489
-120.936
-123.485
-126.141
-128.905
-131.774
-134.738
-137.778
-140.868
-143.975
-147.061
-150.095
-153.048
-155.9
-158.639
-161.253
-163.735
-166.068
-168.208
-170.111
-171.73
-173.037
-174.034
-174.763
-175.286
-175.693
-176.077
-176.547
-177.241
-178.203
-179.375
-180.629
-181.723
-182.477
-182.875
-182.842
-182.223
-181.094
-179.686
-178.389
-177.895
-178.648
-180.674
-184.109
-189.151
-195.58
-202.92
-210.244
-216.03
-219.046
-218.534
-213.61
-203.209
-186.632
-163.712
-134.978
-102.293
-68.181
-34.067
-1.219
29.32
57.842
81.811
96.557
97.905
81.262
47.277
1.575
-50.282
-103.636
-158.463
-216.312
-275.501
-330.342
-371.118
-391.193
-389.683
-371.042
-344.072
-314.846
-286.353
-259.503
-232.846
-206.639
-182.274
-161.032
-144.856
-134.404
-128.801
-126.88
-127.001
-127.567
-127.842
-127.342
-125.471
-122.031
-117.192
-111.304
-105.126
-99.49
-94.716
-90.893
-88.104
-86.245
-85.177
-84.768
-84.659
-84.44
-83.909
-82.946
-81.474
-79.487
-76.911
-73.668
-69.766
-65.269
-60.246
-54.801
-49.036
-43.024
-36.856
-30.606
-24.316
-18.024
-11.745
-5.476
0.783
7.019
13.205
19.308
25.291
31.142
36.861
42.467
48.001
53.493
58.969
64.447
69.928
75.399
80.834
86.182
91.384
96.399
101.198
105.771
110.13
114.279
118.223
121.97
125.511
128.837
131.952
134.843
137.508
139.971
142.264
144.456
146.632
148.837
151.096
153.41
155.739
158.034
160.235
162.248
164.003
165.445
166.517
167.191
167.438
167.198
166.406
164.965
162.757
159.711
155.788
150.965
145.282
138.797
131.595
123.818
115.584
106.986
98.111
89.016
79.752
70.397
61.032
51.746
42.662
33.869
25.434
17.423
9.852
2.717
-4.01
-10.404
-16.528
-22.418
-28.101
-33.586
-38.866
-43.954
-48.856
-53.575
-58.133
-62.548
-66.831
-70.999
-75.052
-78.974
-82.741
-86.309
-89.638
-92.702
-95.483
-97.972
-100.168
-102.07
-103.681
-105.015
-106.076
-106.868
-107.395
-107.654
-107.649
-107.388
-106.881
-106.141
-105.183
-104.021
-102.666
-101.129
-99.42
-97.548
-95.52
-93.342
-91.018
-88.558
-85.972
-83.269
-80.463
-77.564
-74.586
-71.541
-68.444
-65.308
-62.144
-58.966
-55.787
-52.619
-49.477
-46.374
-43.323
-40.338
-37.433
-34.622
-31.918
-29.336
-26.887
-24.586
-22.444
-20.472
-18.682
-17.083
-15.687
-14.5
-13.53
-12.786
-12.273
-11.996
-11.959
-12.165
-12.616
-13.312
-14.253
-15.436
-16.86
-18.52
-20.411
-22.527
-24.861
-27.405
-30.151
-33.087
-36.204
-39.488
-42.926
-46.504
-50.207
-54.017
-57.92
-61.895
-65.927
-69.996
-74.084
-78.173
-82.245
-86.281
-90.266
-94.183
-98.014
-101.745
-105.36
-108.846
-112.186
-115.369
-118.381
-121.211
-123.847
-126.28
-128.501
-130.502
-132.275
-133.814
-135.116
-136.175
-136.989
-137.555
-137.872
-137.939
-137.759
-137.337
-136.676
-135.783
-134.661
-133.316
-131.756
-129.985
-128.01
-125.835
-123.459
-120.885
-118.12
-115.171
-112.045
-108.752
-105.304
-101.709
-97.986
-94.151
-90.224
-86.229
-82.185
-78.116
-74.041
-69.981
-65.963
-62.008
-58.132
-54.354
-50.667
-47.056
-43.519
-40.043
-36.607
-33.207
-29.777
-26.223
-22.557
-18.781
-14.915
-11.037
-7.093
-2.984
1.187
5.258
9.287
13.333
17.633
22.613
28.218
34.215
40.648
47.624
54.979
62.3
68.552
72.378
73.119
70.992
66.627
59.627
49.372
35.128
15.742
-6.225
-26.228
-40.266
-42.83
-32.249
-11.697
15.886
46.112
76.07
106.779
138.246
169.173
197.328
219.117
231.851
234.447
226.532
207.902
179.477
143.684
103.1
60.14
15.577
-31.426
-79.355
-123.637
-157.356
-173.751
-170.885
-152.387
-125.99
-99.449
-77.232
-60.353
-46.816
-34.684
-23.587
-13.854
-6.158
-0.447
4.353
9.425
15.434
22.519
30.5
39.075
47.971
56.904
65.465
73.234
80.035
85.876
90.857
95.142
98.84
102.02
104.81
107.363
109.779
112.123
114.415
116.63
118.77
120.853
122.88
124.842
126.715
128.459
130.04
131.439
132.625
133.571
134.243
134.601
134.62
134.293
133.617
132.603
131.259
129.594
127.623
125.371
122.861
120.119
117.165
114.019
110.703
107.241
103.659
99.984
96.238
92.439
88.603
84.747
80.886
77.03
73.191
69.375
65.591
61.846
58.151
54.511
50.935
47.427
43.992
40.635
37.357
34.161
31.047
28.013
25.06
22.187
19.394
16.678
14.04
11.479
8.992
6.58
4.242
1.977
-0.217
-2.339
-4.391
-6.37
-8.276
-10.108
-11.865
-13.543
-15.141
-16.655
-18.083
-19.422
-20.667
-21.816
-22.866
-23.811
-24.649
-25.377
-25.99
-26.485
-26.861
-27.113
-27.241
-27.243
-27.119
-26.868
-26.492
-25.994
-25.374
-24.639
-23.791
-22.836
-21.782
-20.634
-19.401
-18.092
-16.715
-15.281
-13.8
-12.284
-10.744
-9.191
-7.638
-6.097
-4.581
-3.103
-1.674
-0.308
0.983
2.187
3.291
4.284
5.156
5.896
6.495
6.943
7.233
7.358
7.312
7.09
6.688
6.104
5.335
4.382
3.244
1.923
0.422
-1.256
-3.107
-5.125
-7.306
-9.641
-12.124
-14.748
-17.502
-20.379
-23.368
-26.459
-29.641
-32.902
-36.23
-39.613
-43.038
-46.49
-49.957
-53.423
-56.875
-60.298
-63.677
-66.998
-70.246
-73.406
-76.465
-79.406
-82.217
-84.882
-87.389
-89.722
-91.869
-93.818
-95.554
-97.068
-98.346
-99.378
-100.154
-100.663
-100.894
-100.839
-100.49
-99.838
-98.875
-97.597
-95.998
-94.075
-91.825
-89.249
-86.346
-83.119
-79.569
-75.702
-71.523
-67.038
-62.254
-57.181
-51.83
-46.213
-40.345
-34.241
-27.918
-21.393
-14.686
-7.817
-0.804
6.33
13.567
20.883
28.257
35.663
43.077
50.475
57.829
65.112
72.298
79.358
86.268
93.005
99.548
105.875
111.968
117.808
123.381
128.672
133.666
138.348
142.704
146.723
150.397
153.722
156.693
159.308
161.569
163.477
165.041
166.265
167.149
167.689
167.879
167.717
167.212
166.372
165.206
163.728
161.962
159.95
157.745
155.396
152.936
150.384
147.756
145.077
142.379
139.692
137.042
134.445
131.921
129.509
127.269
125.225
123.356
121.586
119.792
117.876
115.791
113.484
110.852
107.87
104.579
101.114
97.784
94.853
92.42
90.603
89.541
89.14
89.214
89.407
88.961
87.267
84.03
78.881
71.62
62.637
52.544
42.406
34.057
29.077
28.725
34.417
47.282
67.751
95.69
130.194
168.78
208.305
246.52
281.264
311.053
335.864
353.108
358.358
348.803
321.976
279.64
228.005
170.778
110.182
48.371
-13.355
-68.65
-107.717
-125.764
-121.792
-100.79
-73.717
-47.314
-25.063
-8.435
5.433
17.9
28.075
35.343
38.527
37.099
32.573
27.127
22.02
17.866
14.86
12.763
11.611
11.746
12.822
13.979
14.755
14.898
14.397
13.578
12.559
11.229
9.69
8.2
6.933
6.05
5.617
5.536
5.769
6.346
7.261
8.496
10.027
11.794
13.736
15.818
17.992
20.205
22.423
24.612
26.744
28.804
30.778
32.657
34.441
36.129
37.711
39.167
40.483
41.644
42.646
43.486
44.161
44.667
45.003
45.17
45.17
45.002
44.663
44.148
43.454
42.576
41.515
40.273
38.853
37.262
35.506
33.593
31.531
29.332
27.004
24.556
21.997
19.337
16.587
13.757
10.86
7.907
4.912
1.888
-1.152
-4.193
-7.224
-10.23
-13.201
-16.123
-18.987
-21.783
-24.5
-27.131
-29.667
-32.099
-34.422
-36.63
-38.718
-40.681
-42.518
-44.225
-45.803
-47.25
-48.567
-49.757
-50.82
-51.758
-52.574
-53.271
-53.854
-54.328
-54.697
-54.967
-55.146
-55.241
-55.26
-55.21
-55.101
-54.94
-54.737
-54.5
-54.239
-53.962
-53.677
-53.393
-53.119
-52.862
-52.63
-52.429
-52.267
-52.148
-52.078
-52.062
-52.104
-52.206
-52.374
-52.608
-52.912
-53.287
-53.735
-54.256
-54.85
-55.515
-56.251
-57.055
-57.922
-58.849
-59.831
-60.861
-61.935
-63.044
-64.182
-65.338
-66.506
-67.674
-68.833
-69.973
-71.081
-72.149
-73.164
-74.115
-74.994
-75.788
-76.488
-77.084
-77.568
-77.928
-78.157
-78.244
-78.18
-77.956
-77.562
-76.991
-76.233
-75.284
-74.135
-72.782
-71.222
-69.449
-67.462
-65.259
-62.838
-60.199
-57.343
-54.272
-50.988
-47.494
-43.796
-39.899
-35.81
-31.535
-27.081
-22.456
-17.667
-12.721
-7.625
-2.385
2.992
8.5
14.128
19.868
25.71
31.642
37.652
43.725
49.846
56.002
62.181
68.374
74.572
80.766
86.95
93.118
99.263
105.376
111.448
117.468
123.419
129.291
135.073
140.755
146.339
151.814
157.168
162.387
167.45
172.33
176.995
181.398
185.489
189.233
192.601
195.578
198.168
200.37
202.188
203.631
204.69
205.361
205.651
205.555
205.076
204.236
203.067
201.626
199.992
198.211
196.31
194.299
192.153
189.842
187.332
184.566
181.509
178.135
174.411
170.319
165.847
160.951
155.58
149.669
143.113
135.844
127.827
119.028
109.448
99.108
88.032
76.272
63.874
50.85
37.222
23.024
8.292
-6.888
-22.425
-38.255
-54.27
-70.38
-86.515
-102.558
-118.42
-134.058
-149.351
-164.123
-178.137
-190.987
-202.31
-211.87
-219.39
-224.686
-227.831
-228.98
-228.554
-227.283
-225.693
-224.253
-223.551
-223.755
-224.55
-225.344
-225.001
-222.159
-215.827
-204.825
-187.753
-163.95
-133.432
-96.964
-56.253
-13.12
30.71
72.726
109.854
139.503
159.528
168.564
166.086
151.564
124.813
87.618
43.386
-5.256
-56.01
-107.735
-160.749
-211.455
-254.153
-284.526
-298.059
-295.344
-281.571
-260.792
-238.023
-216.591
-196.434
-178.025
-161.521
-147.025
-136.019
-129.598
-127.618
-129.084
-132.299
-135.636
-138.306
-140.099
-140.72
-139.686
-136.805
-132.26
-126.648
-120.851
-115.335
-110.171
-105.404
-101.089
-97.231
-93.787
-90.54
-87.099
-83.223
-78.844
-73.942
-68.56
-62.723
-56.422
-49.688
-42.601
-35.229
-27.618
-19.809
-11.816
-3.675
4.559
12.838
21.121
29.374
37.575
45.709
53.758
61.713
69.564
77.297
84.898
92.353
99.645
106.764
113.695
120.428
126.957
133.276
139.382
145.268
150.927
156.349
161.525
166.447
171.104
175.489
179.595
183.418
186.955
190.204
193.161
195.826
198.198
200.274
202.054
203.535
204.716
205.595
206.174
206.453
206.433
206.117
205.506
204.604
203.416
201.945
200.197
198.177
195.891
193.344
190.544
187.499
184.215
180.702
176.969
173.025
168.88
164.546
160.034
155.355
150.522
145.548
140.447
135.232
129.917
124.518
119.05
113.529
107.972
102.394
96.814
91.247
85.711
80.222
74.795
69.447
64.194
59.05
54.028
49.144
44.411
39.84
35.445
31.235
27.222
23.415
19.822
16.453
13.313
10.409
7.745
5.326
3.155
1.235
-0.434
-1.85
-3.014
-3.926
-4.589
-5.006
-5.179
-5.113
-4.813
-4.284
-3.532
-2.563
-1.384
-0.001
1.578
3.347
5.3
7.429
9.727
12.186
14.801
17.564
20.467
23.506
26.671
29.957
33.358
36.868
40.482
44.192
47.994
51.882
55.85
59.894
64.006
68.18
72.41
76.689
81.012
85.373
89.764
94.18
98.614
103.06
107.51
111.958
116.395
120.814
125.206
129.562
133.874
138.132
142.327
146.45
150.49
154.438
158.284
162.016
165.622
169.091
172.411
175.569
178.552
181.348
183.944
186.328
188.49
190.423
192.116
193.563
194.753
195.682
196.341
196.726
196.825
196.63
196.13
195.318
194.188
192.736
190.957
188.847
186.404
183.626
180.519
177.084
173.319
169.217
164.768
159.975
154.851
149.418
143.695
137.699
131.446
124.962
118.278
111.418
104.386
97.171
89.757
82.143
74.345
66.396
58.33
50.166
41.905
33.541
25.086
16.549
7.933
-0.783
-9.637
-18.637
-27.743
-36.872
-45.939
-54.888
-63.692
-72.341
-80.82
-89.093
-97.115
-104.846
-112.27
-119.359
-126.065
-132.296
-137.94
-142.927
-147.251
-150.967
-154.13
-156.761
-158.865
-160.433
-161.469
-162.014
-162.11
-161.782
-161.068
-160.021
-158.719
-157.314
-155.996
-154.858
-153.902
-153.027
-152.029
-150.785
-149.23
-147.223
-144.674
-141.666
-138.437
-135.481
-133.491
-132.948
-134.205
-137.67
-143.45
-151.217
-160.309
-169.574
-177.612
-183.269
-185.344
-182.379
-173.338
-157.887
-136.817
-112.043
-85.495
-58.695
-31.984
-5.379
19.295
38.403
45.852
35.107
4.021
-44.107
-102.098
-162.052
-220.554
-279.588
-341.088
-403.694
-460.831
-502.253
-521.96
-519.865
-501.452
-476.187
-450.38
-427.081
-406.81
-387.142
-367.416
-348.759
-332.673
-321.401
-315.708
-314.653
-317.129
-322.098
-328.718
-336.306
-343.779
-349.955
-354.213
-356.429
-356.772
-355.532
-352.907
-349.185
-345
-340.928
-337.251
-334.088
-331.344
-328.858
-326.588
-324.422
-322.118
-319.517
-316.551
-313.203
-309.57
-305.741
-301.746
-297.645
-293.509
-289.382
-285.315
-281.325
-277.39
-273.499
-269.645
-265.817
-262.015
-258.227
-254.428
-250.605
-246.747
-242.842
-238.88
-234.846
-230.722
-226.491
-222.138
-217.648
-213.013
-208.219
-203.253
-198.109
-192.779
-187.26
-181.547
-175.628
-169.487
-163.121
-156.538
-149.756
-142.789
-135.651
-128.356
-120.929
-113.402
-105.802
-98.139
-90.408
-82.598
-74.717
-66.789
-58.853
-50.948
-43.098
-35.303
-27.563
-19.89
-12.297
-4.79
2.649
10.051
17.414
24.691
31.792
38.629
45.144
51.304
57.098
62.504
67.485
71.993
75.992
79.462
82.381
84.709
86.374
87.293
87.436
86.839
85.594
83.789
81.482
78.71
75.505
71.914
67.997
63.808
59.381
54.741
49.927
45.004
40.069
35.225
30.535
26.008
21.617
17.341
13.182
9.151
5.256
1.492
-2.146
-5.649
-8.986
-12.127
-15.054
-17.773
-20.305
-22.676
-24.89
-26.936
-28.786
-30.424
-31.84
-33.028
-33.983
-34.69
-35.146
-35.358
-35.348
-35.138
-34.744
-34.175
-33.438
-32.541
-31.498
-30.325
-29.039
-27.656
-26.189
-24.656
-23.073
-21.458
-19.826
-18.187
-16.549
-14.917
-13.3
-11.704
-10.136
-8.601
-7.104
-5.65
-4.244
-2.89
-1.591
-0.35
0.834
1.959
3.026
4.034
4.986
5.881
6.723
7.513
8.253
8.946
9.595
10.204
10.775
11.314
11.823
12.307
12.768
13.21
13.636
14.049
14.45
14.841
15.226
15.604
15.979
16.351
16.721
17.092
17.464
17.837
18.213
18.591
18.971
19.353
19.737
20.123
20.513
20.905
21.3
21.698
22.098
22.499
22.897
23.29
23.673
24.04
24.389
24.714
25.012
25.28
25.515
25.715
25.881
26.01
26.103
26.157
26.171
26.143
26.07
25.95
25.784
25.57
25.305
24.987
24.615
24.187
23.703
23.158
22.54
21.841
21.054
20.179
19.217
18.176
17.065
15.902
14.714
13.537
12.414
11.383
10.478
9.715
9.111
8.679
8.445
8.428
8.63
9.043
9.662
10.472
11.441
12.521
13.614
14.591
15.342
15.726
15.581
14.858
13.588
11.862
9.88
7.778
5.582
3.44
1.588
0.026
-1.371
-2.958
-5.364
-8.818
-13.083
-18.018
-23.538
-29.349
-35.115
-39.969
-42.331
-41.232
-36.501
-27.977
-15.495
1.166
22.554
48.543
77.794
109.259
142.504
176.835
211.18
243.874
272.31
294.01
307.583
311.602
304.148
284.582
253.789
213.193
165.597
112.445
52.702
-11.936
-77.571
-137.298
-181.055
-203.806
-205.288
-189.667
-166.064
-140.688
-117.112
-97.039
-78.742
-62.011
-48.101
-38.145
-33.827
-35.444
-41.533
-50.333
-60.051
-69.095
-76.504
-81.508
-83.527
-82.464
-78.675
-72.828
-65.729
-58.205
-50.799
-43.86
-37.611
-32.029
-26.987
-22.299
-17.698
-12.893
-7.721
-2.114
3.941
10.361
17.079
24.045
31.19
38.436
45.724
53
60.218
67.343
74.324
81.112
87.664
93.938
99.903
105.539
110.828
115.761
120.331
124.53
128.345
131.77
134.799
137.433
139.677
141.539
143.035
144.182
145.001
145.514
145.743
145.708
145.431
144.933
144.236
143.364
142.344
141.203
139.97
138.675
137.347
136.014
134.707
133.45
132.271
131.194
130.241
129.433
128.792
128.336
128.079
128.038
128.222
128.642
129.302
130.208
131.359
132.757
134.396
136.271
138.373
140.693
143.218
145.934
148.826
151.874
155.06
158.363
161.761
165.232
168.752
172.297
175.843
179.364
182.835
186.231
189.529
192.701
195.726
198.58
201.243
203.694
205.917
207.897
209.621
211.081
212.268
213.179
213.809
214.155
214.219
214.001
213.504
212.732
211.69
210.386
208.833
207.048
205.048
202.852
200.482
197.962
195.315
192.571
189.754
186.884
183.986
181.085
178.211
175.401
172.685
170.083
167.613
165.288
163.117
161.109
159.254
157.528
155.91
154.379
152.931
151.583
150.344
149.219
148.215
147.329
146.577
146.002
145.63
145.483
145.584
145.954
146.646
147.749
149.328
151.429
154.062
157.188
160.77
164.774
169.135
173.779
178.594
183.427
188.155
192.687
196.922
200.768
204.092
206.715
208.496
209.339
209.177
208.004
205.815
202.605
198.425
193.358
187.532
181.117
174.245
167.006
159.5
151.82
144.089
136.472
129.091
122.031
115.362
109.125
103.357
98.103
93.357
89.076
85.194
81.618
78.287
75.173
72.246
69.476
66.828
64.246
61.7
59.183
56.685
54.199
51.714
49.213
46.703
44.209
41.76
39.391
37.121
34.95
32.876
30.896
29.001
27.184
25.429
23.71
22.005
20.298
18.573
16.818
15.02
13.155
11.204
9.147
6.973
4.673
2.247
-0.307
-2.988
-5.791
-8.712
-11.741
-14.869
-18.091
-21.403
-24.808
-28.31
-31.905
-35.577
-39.305
-43.071
-46.856
-50.643
-54.401
-58.097
-61.699
-65.181
-68.524
-71.708
-74.699
-77.461
-79.938
-82.069
-83.81
-85.128
-86.014
-86.483
-86.55
-86.245
-85.631
-84.769
-83.734
-82.635
-81.474
-80.191
-78.697
-76.79
-74.337
-71.347
-67.71
-63.238
-58.007
-52.243
-46.41
-41.379
-37.752
-35.795
-35.962
-38.6
-43.508
-50.153
-57.404
-63.402
-66.568
-65.495
-58.497
-44.244
-22.657
5.269
37.972
73.667
112.296
154.433
198.501
240.144
271.66
285.206
276.694
247.764
205.677
158.022
109.475
60.36
7.531
-49.55
-106.713
-155.87
-188.415
-200.788
-195.367
-179.169
-159.786
-141.655
-126.348
-113.101
-100.942
-90.07
-81.228
-75.314
-72.413
-71.758
-72.16
-72.327
-71.636
-69.994
-67.484
-64.376
-60.954
-57.466
-54.299
-51.858
-50.314
-49.662
-49.79
-50.502
-51.624
-53.037
-54.581
-56.078
-57.41
-58.494
-59.287
-59.798
-60.023
-59.946
-59.561
-58.873
-57.895
-56.657
-55.193
-53.521
-51.674
-49.685
-47.588
-45.431
-43.242
-41.039
-38.833
-36.624
-34.413
-32.201
-29.986
-27.756
-25.505
-23.225
-20.911
-18.563
-16.176
-13.746
-11.267
-8.733
-6.14
-3.491
-0.787
1.966
4.763
7.598
10.461
13.339
16.223
19.104
21.972
24.819
27.634
30.407
33.128
35.786
38.37
40.869
43.269
45.559
47.728
49.764
51.657
53.399
54.98
56.391
57.627
58.68
59.546
60.219
60.696
60.974
61.051
60.927
60.602
60.079
59.36
58.448
57.349
56.069
54.613
52.991
51.21
49.279
47.209
45.01
42.694
40.274
37.762
35.171
32.516
29.81
27.068
24.304
21.531
18.763
16.014
13.296
10.621
8
5.445
2.965
0.57
-1.732
-3.934
-6.03
-8.015
-9.884
-11.635
-13.265
-14.773
-16.16
-17.426
-18.574
-19.606
-20.527
-21.341
-22.054
-22.672
-23.204
-23.657
-24.041
-24.365
-24.638
-24.871
-25.074
-25.258
-25.435
-25.614
-25.807
-26.024
-26.275
-26.571
-26.92
-27.332
-27.814
-28.375
-29.021
-29.758
-30.591
-31.524
-32.562
-33.707
-34.961
-36.324
-37.797
-39.378
-41.066
-42.857
-44.749
-46.736
-48.813
-50.974
-53.212
-55.52
-57.888
-60.308
-62.769
-65.262
-67.776
-70.298
-72.818
-75.323
-77.801
-80.241
-82.629
-84.954
-87.205
-89.37
-91.438
-93.398
-95.24
-96.956
-98.537
-99.975
-101.263
-102.395
-103.365
-104.171
-104.808
-105.274
-105.567
-105.686
-105.631
-105.402
-105.003
-104.435
-103.702
-102.809
-101.761
-100.567
-99.234
-97.773
-96.191
-94.501
-92.712
-90.837
-88.888
-86.876
-84.815
-82.717
-80.593
-78.458
-76.324
-74.202
-72.104
-70.039
-68.015
-66.041
-64.126
-62.277
-60.501
-58.801
-57.181
-55.646
-54.198
-52.84
-51.569
-50.382
-49.271
-48.226
-47.238
-46.294
-45.384
-44.489
-43.588
-42.658
-41.677
-40.628
-39.494
-38.261
-36.911
-35.427
-33.794
-32.007
-30.065
-27.967
-25.712
-23.285
-20.673
-17.876
-14.904
-11.785
-8.542
-5.169
-1.631
2.121
6.124
10.381
14.886
19.678
24.848
30.455
36.437
42.59
48.688
54.649
60.58
66.667
72.891
79.164
85.632
92.736
101.104
111.198
122.869
135.51
148.81
162.613
176.385
189.213
199.654
206.166
208.254
206.274
200.352
190.616
177.734
162.838
148.026
135.948
128.164
125.522
129.174
140.039
158.505
183.84
213.546
244.717
275.655
306.341
337.263
366.99
391.327
403.333
396.197
367.186
318.955
259.438
196.878
136.222
77.246
15.107
-51.854
-120.581
-183.124
-228.049
-249.519
-247.456
-226.032
-193.684
-156.766
-120.139
-89.375
-67.464
-56.209
-55.367
-60.425
-67.212
-73.558
-78.946
-85.373
-94.203
-104.625
-115.052
-123.648
-129.399
-132.437
-133.35
-132.779
-131.295
-129.609
-128.321
-127.757
-128.086
-129.235
-130.983
-133.179
-135.618
-137.997
-140.14
-141.973
-143.471
-144.722
-145.808
-146.761
-147.636
-148.482
-149.307
-150.112
-150.886
-151.61
-152.298
-152.977
-153.676
-154.427
-155.252
-156.156
-157.13
-158.16
-159.228
-160.33
-161.469
-162.671
-163.979
-165.44
