    Name
Date of Birth,"Dec 28, 2003"
Recorded Date,2024-09-19 10:04:44 -0500
Classification,Poor Recording
Symptoms,
Software Version,1.90
Device,"Watch4,4"
Sample Rate,512.711 hertz


Lead,Lead I
Unit,µV

-2.142
-0.948
-0.007
0.689
1.145
1.371
1.379
1.18
0.789
0.222
-0.504
-1.369
-2.354
-3.438
-4.599
-5.814
-7.059
-8.312
-9.548
-10.745
-11.878
-12.925
-13.865
-14.677
-15.341
-15.839
-16.155
-16.273
-16.18
-15.864
-15.315
-14.524
-13.487
-12.199
-10.658
-8.865
-6.823
-4.537
-2.015
0.734
3.696
6.859
10.205
13.717
17.373
21.153
25.032
28.986
32.989
37.013
41.03
45.013
48.933
52.76
56.468
60.028
63.414
66.599
69.559
72.269
74.708
76.854
78.688
80.191
81.349
82.148
82.575
82.62
82.278
81.542
80.409
78.881
76.959
74.646
71.951
68.883
65.452
61.672
57.559
53.131
48.408
43.41
38.162
32.687
27.012
21.162
15.165
9.048
2.838
-3.435
-9.745
-16.064
-22.363
-28.617
-34.798
-40.881
-46.84
-52.651
-58.292
-63.742
-68.981
-73.989
-78.751
-83.251
-87.474
-91.409
-95.045
-98.372
-101.384
-104.074
-106.439
-108.478
-110.19
-111.577
-112.643
-113.393
-113.832
-113.968
-113.809
-113.362
-112.636
-111.642
-110.389
-108.887
-107.149
-105.184
-103.004
-100.621
-98.047
-95.293
-92.369
-89.283
-86.046
-82.665
-79.149
-75.505
-71.74
-67.862
-63.875
-59.787
-55.604
-51.33
-46.969
-42.524
-37.996
-33.386
-28.696
-23.923
-19.068
-14.132
-9.116
-4.023
1.142
6.376
11.671
17.017
22.407
27.828
33.274
38.737
44.208
49.675
55.126
60.547
65.922
71.237
76.469
81.589
86.571
91.387
96.018
100.45
104.665
108.63
112.312
115.672
118.669
121.257
123.373
124.932
125.851
126.064
125.526
124.223
122.135
119.24
115.517
110.938
105.505
99.239
92.154
84.256
75.569
66.149
56.113
45.653
34.95
24.149
13.357
2.637
-7.944
-18.334
-28.514
-38.484
-48.297
-57.996
-67.572
-77
-86.305
-95.581
-105.033
-114.985
-125.704
-137.448
-150.506
-165.025
-181.069
-198.544
-217.115
-236.444
-256.316
-276.495
-296.757
-317.179
-337.928
-359.37
-382.158
-406.46
-431.989
-458.389
-485.03
-510.818
-534.443
-554.157
-567.824
-574.071
-572.078
-561.19
-541.306
-512.548
-475.3
-430.762
-380.404
-325.784
-268.974
-211.392
-153.413
-93.942
-30.412
38.303
109.646
176.986
232.819
273.172
299.896
320.53
342.367
368.439
398.346
428.912
457.998
486.413
515.544
546.312
578.784
612.34
645.124
674.473
698.607
715.604
724.965
728.547
725.373
712.584
687.684
647.014
590.132
520.238
442.106
363.022
292.059
238.068
204.873
192.039
195.212
207.219
225.433
248.606
273.975
298.218
315.529
322.038
319.112
311.921
306.483
306.215
310.794
317.101
322.326
325.408
326.599
326.921
326.718
325.56
322.889
318.212
311.463
302.892
292.759
281.342
268.942
255.832
242.307
228.635
215.033
201.712
188.831
176.53
164.944
154.134
144.177
135.162
127.035
119.64
112.716
105.785
98.355
90.033
80.262
68.475
54.438
38.04
19.469
-0.58
-21.493
-42.713
-63.268
-82.82
-102.654
-124.556
-150.652
-181.294
-212.408
-239.074
-259.247
-277.43
-306.499
-361.823
-452.886
-576.983
-718.533
-854.114
-962.608
-1032.771
-1063.054
-1060.916
-1034.69
-988.78
-928.851
-858.967
-786.835
-725.452
-680.862
-654.984
-643.734
-635.464
-624.317
-609.295
-591.707
-576.863
-566.417
-557.672
-547.837
-534.02
-514.748
-490.972
-464.773
-437.093
-408.462
-379.251
-347.793
-314.344
-281.122
-250.371
-226.551
-212.375
-206.784
-207.059
-206.796
-197.247
-172.052
-126.991
-63
11.006
84.175
145.563
187.877
212.668
226.237
237.17
252.661
274.459
300.411
326.165
348.239
365.56
378.504
388.277
395.31
399.137
399.343
395.594
387.896
376.555
361.81
343.888
323.071
299.675
274.022
246.434
217.246
186.75
155.224
122.958
90.208
57.223
24.311
-8.194
-39.94
-70.532
-99.622
-126.923
-152.147
-175.068
-195.542
-213.49
-228.925
-241.887
-252.387
-260.442
-266.078
-269.333
-270.321
-269.203
-266.174
-261.502
-255.479
-248.398
-240.584
-232.349
-223.925
-215.487
-207.144
-198.959
-191.005
-183.353
-176.055
-169.157
-162.677
-156.617
-150.96
-145.645
-140.569
-135.615
-130.627
-125.443
-119.937
-114.01
-107.596
-100.677
-93.242
-85.299
-76.865
-67.951
-58.559
-48.681
-38.329
-27.561
-16.458
-5.114
6.341
17.765
29.004
39.857
50.165
59.817
68.734
76.881
84.21
90.653
96.142
100.622
104.105
106.685
108.469
109.564
110.14
110.356
110.422
110.667
111.386
112.858
115.401
119.293
124.859
132.614
143.117
156.681
173.256
192.49
213.82
237.316
263.762
293.233
324.833
355.762
381.561
399.795
412.393
425.986
450.68
494.656
557.249
629.299
695.848
741.511
760.556
755.596
735.15
710.217
685.914
664.841
646.757
629.61
614.241
599.316
584.204
569.259
552.938
536.251
519.876
503.374
487.424
471.476
454.975
438.28
421.427
404.656
388.417
372.775
357.707
343.234
329.22
315.491
301.901
288.292
274.569
260.734
246.81
232.801
218.704
204.511
190.221
175.88
161.508
147.068
132.584
118.129
103.841
90.014
76.931
64.729
53.475
43.182
33.584
24.304
14.95
4.833
-6.654
-19.859
-35.007
-51.973
-69.959
-87.857
-104.585
-118.699
-128.772
-133.579
-131.914
-123.163
-107.838
-87.058
-61.937
-34.167
-5.921
20.436
42.112
56.506
62.12
57.98
42.919
17.272
-16.992
-57.789
-102.712
-150.783
-202.778
-257.263
-309.268
-351.215
-375.836
-380.211
-367.276
-344.882
-320.616
-299.051
-281.941
-267.555
-254.171
-241.819
-230.928
-222.322
-216.269
-211.788
-207.465
-202.424
-196.346
-189.263
-181.506
-173.38
-165.117
-157.13
-149.91
-143.675
-138.465
-134.2
-130.63
-127.585
-124.94
-122.514
-120.165
-117.815
-115.401
-112.906
-110.349
-107.724
-105.024
-102.26
-99.429
-96.544
-93.632
-90.724
-87.866
-85.104
-82.485
-80.057
-77.843
-75.851
-74.081
-72.523
-71.16
-69.975
-68.943
-68.035
-67.226
-66.497
-65.822
-65.179
-64.538
-63.866
-63.133
-62.306
-61.357
-60.26
-58.994
-57.54
-55.884
-54.012
-51.915
-49.59
-47.029
-44.226
-41.179
-37.885
-34.344
-30.56
-26.54
-22.292
-17.829
-13.166
-8.323
-3.322
1.814
7.059
12.385
17.763
23.164
28.555
33.905
39.179
44.343
49.361
54.198
58.819
63.186
67.265
71.022
74.423
77.436
80.031
82.18
83.855
85.031
85.687
85.801
85.356
84.338
82.735
80.538
77.743
74.349
70.358
65.776
60.614
54.883
48.6
41.785
34.459
26.65
18.384
9.692
0.609
-8.832
-18.591
-28.63
-38.908
-49.382
-60.009
-70.745
-81.547
-92.368
-103.166
-113.895
-124.512
-134.974
-145.239
-155.267
-165.019
-174.457
-183.548
-192.259
-200.559
-208.422
-215.823
-222.74
-229.154
-235.05
-240.415
-245.241
-249.52
-253.249
-256.428
-259.061
-261.152
-262.71
-263.746
-264.273
-264.308
-263.866
-262.969
-261.637
-259.892
-257.758
-255.261
-252.426
-249.278
-245.846
-242.155
-238.232
-234.104
-229.796
-225.335
-220.744
-216.048
-211.268
-206.426
-201.543
-196.635
-191.72
-186.812
-181.924
-177.066
-172.249
-167.477
-162.758
-158.095
-153.488
-148.939
-144.446
-140.006
-135.615
-131.267
-126.957
-122.678
-118.421
-114.179
-109.944
-105.706
-101.458
-97.192
-92.899
-88.573
-84.206
-79.792
-75.324
-70.797
-66.207
-61.552
-56.829
-52.038
-47.182
-42.263
-37.288
-32.263
-27.198
-22.101
-16.984
-11.86
-6.743
-1.648
3.409
8.41
13.336
18.169
22.887
27.47
31.897
36.146
40.199
44.035
47.637
50.985
54.063
56.854
59.342
61.512
63.349
64.838
65.966
66.724
67.103
67.104
66.723
65.965
64.833
63.338
61.492
59.308
56.8
53.976
50.849
47.433
43.739
39.778
35.555
31.08
26.364
21.429
16.308
11.029
5.632
0.188
-5.222
-10.542
-15.73
-20.764
-25.655
-30.381
-34.954
-39.544
-44.274
-49.089
-53.897
-58.521
-63.206
-68.769
-75.667
-83.408
-89.426
-90.214
-83.699
-70.395
-56.183
-48.652
-52.548
-69.445
-92.736
-112.595
-122.948
-119.851
-106.966
-92.572
-81.666
-78.364
-82.564
-89.94
-97.978
-104.807
-109.829
-114.295
-118.521
-122.012
-123.933
-123.338
-119.892
-113.674
-104.755
-93.325
-79.528
-63.591
-46.64
-30.189
-15.679
-4.641
1.602
1.961
-4.816
-20.265
-44.221
-74.654
-110.398
-150.42
-194.831
-245.792
-300.529
-352.01
-393.715
-418.438
-425.305
-420.065
-407.112
-391.146
-374.396
-355.431
-334.576
-312.48
-290.132
-269.98
-253.808
-242.784
-237.316
-236.618
-239.837
-246.298
-255.272
-266.384
-278.295
-289.233
-299.012
-307.133
-314.389
-322.164
-328.264
-331.074
-328.397
-317.782
-302.146
-284.309
-266.819
-252.763
-240.872
-230.006
-220.343
-211.144
-203.166
-196.926
-191.579
-186.838
-182.512
-178.229
-173.921
-169.518
-164.84
-159.982
-155.318
-151.039
-147.194
-143.824
-140.866
-138.299
-136.249
-134.763
-133.729
-133.162
-133.223
-133.881
-135.111
-137.053
-139.425
-142.431
-147.282
-153.722
-160.597
-166.218
-166.492
-160.292
-151.534
-145.219
-148.799
-166.704
-193.874
-222.355
-243.801
-251.589
-248.913
-243.534
-241.265
-247.1
-260.212
-275.591
-290.573
-303.26
-313.248
-322.186
-330.492
-337.846
-344.193
-349.19
-352.712
-354.989
-356.127
-356.151
-355.214
-353.513
-351.166
-348.276
-344.913
-341.085
-336.866
-332.39
-327.786
-323.206
-318.774
-314.562
-310.643
-307.072
-303.866
-301.011
-298.445
-296.047
-293.734
-291.457
-289.185
-286.917
-284.638
-282.316
-279.924
-277.436
-274.829
-272.093
-269.212
-266.165
-262.955
-259.596
-256.126
-252.608
-249.085
-245.578
-242.102
-238.656
-235.239
-231.856
-228.497
-225.146
-221.79
-218.42
-215.033
-211.631
-208.21
-204.76
-201.271
-197.726
-194.116
-190.435
-186.679
-182.844
-178.933
-174.947
-170.896
-166.789
-162.637
-158.446
-154.224
-149.978
-145.717
-141.446
-137.17
-132.901
-128.65
-124.429
-120.253
-116.124
-112.039
-108.014
-104.062
-100.168
-96.319
-92.505
-88.707
-84.941
-81.236
-77.574
-73.916
-70.343
-66.95
-63.669
-60.495
-57.438
-54.271
-51.565
-49.874
-48.373
-46.802
-43.655
-37.134
-29.199
-21.151
-14.935
-13.23
-13.64
-14.132
-13.312
-8.881
-2.46
4.305
11.054
16.785
22.089
27.723
33.545
39.652
45.991
52.406
58.993
65.825
72.869
80.109
87.545
95.16
102.935
110.848
118.87
126.963
135.115
143.313
151.534
159.757
167.963
176.126
184.227
192.246
200.156
207.932
215.549
222.981
230.201
237.187
243.918
250.374
256.536
262.389
267.922
273.124
277.988
282.502
286.656
290.44
293.843
296.856
299.473
301.685
303.491
304.886
305.874
306.465
306.668
306.488
305.927
304.976
303.634
301.909
299.815
297.367
294.587
291.505
288.168
284.646
281.01
277.314
273.593
269.856
266.112
262.369
258.639
254.939
251.267
247.615
243.972
240.345
236.729
233.093
229.362
225.393
221.034
216.178
210.763
204.771
198.198
191.058
183.387
175.258
166.791
158.103
149.274
140.375
131.491
122.755
114.4
106.736
100.071
94.7
90.915
88.863
88.598
90.043
92.925
96.986
102.02
107.684
113.607
119.761
126.36
133.939
143.364
154.984
168.707
184.838
203.612
224.443
246.414
267.132
283.419
294.048
297.824
294.233
283.823
265.352
238.51
203.084
156.891
99.844
33.861
-36.199
-99.901
-147.27
-172.521
-173.852
-155.921
-126.013
-90.992
-58.364
-32.854
-16.607
-8.968
-5.739
-4.118
-2.523
-1.044
-2.088
-6.008
-12.213
-19.945
-27.367
-33.457
-37.65
-39.559
-39.564
-38.452
-37.081
-35.971
-35.246
-34.895
-34.942
-35.464
-36.521
-37.944
-39.359
-40.517
-41.307
-41.72
-41.838
-41.673
-41.191
-40.401
-39.36
-38.142
-36.827
-35.471
-34.097
-32.721
-31.356
-30.014
-28.711
-27.453
-26.239
-25.056
-23.886
-22.726
-21.584
-20.471
-19.398
-18.366
-17.368
-16.399
-15.455
-14.535
-13.635
-12.751
-11.873
-11.002
-10.137
-9.285
-8.452
-7.641
-6.85
-6.078
-5.324
-4.584
-3.857
-3.141
-2.432
-1.729
-1.032
-0.342
0.34
1.011
1.672
2.322
2.96
3.588
4.205
4.814
5.414
6.007
6.593
7.174
7.75
8.321
8.887
9.449
10.004
10.555
11.099
11.637
12.168
12.69
13.201
13.7
14.183
14.649
15.094
15.516
15.911
16.277
16.612
16.912
17.177
17.403
17.588
17.73
17.827
17.876
17.875
17.821
17.711
17.543
17.315
17.024
16.668
16.246
15.755
15.195
14.565
13.864
13.094
12.254
11.347
10.375
9.34
8.246
7.097
5.897
4.651
3.364
2.04
0.687
-0.691
-2.088
-3.498
-4.915
-6.332
-7.744
-9.145
-10.529
-11.89
-13.224
-14.525
-15.788
-17.008
-18.183
-19.307
-20.377
-21.392
-22.348
-23.244
-24.08
-24.856
-25.573
-26.232
-26.837
-27.389
-27.894
-28.354
-28.776
-29.164
-29.524
-29.861
-30.18
-30.488
-30.789
-31.089
-31.392
-31.702
-32.023
-32.357
-32.707
-33.073
-33.455
-33.853
-34.264
-34.686
-35.114
-35.542
-35.965
-36.374
-36.759
-37.11
-37.415
-37.662
-37.836
-37.922
-37.903
-37.764
-37.486
-37.051
-36.442
-35.639
-34.624
-33.38
-31.888
-30.133
-28.098
-25.768
-23.131
-20.175
-16.889
-13.266
-9.298
-4.982
-0.315
4.703
10.068
15.776
21.819
28.187
34.865
41.837
49.084
56.584
64.314
72.246
80.352
88.6
96.96
105.395
113.872
122.353
130.801
139.178
147.444
155.562
163.491
171.196
178.639
185.785
192.6
199.054
205.115
210.758
215.957
220.689
224.932
228.668
231.882
234.565
236.711
238.32
239.395
239.945
239.98
239.515
238.567
237.157
235.306
233.034
230.36
227.308
223.905
220.186
216.184
211.926
207.441
202.755
197.903
192.924
187.855
182.734
177.595
172.465
167.391
162.425
157.621
153.04
148.722
144.687
140.971
137.616
134.665
132.172
130.137
128.508
127.236
126.246
125.487
124.97
124.625
124.328
124.03
123.69
123.414
123.514
124.083
124.996
126.148
127.362
128.493
129.574
130.22
129.608
127.318
123.251
117.659
111.306
104.778
98.333
92.802
89.655
90.141
95.336
105.592
120.202
138.523
160.211
184.361
209.14
232.337
251.431
264.185
269.446
266.349
253.586
230.838
199.624
161.132
116.859
68.114
14
-43.004
-96.802
-141.605
-171.084
-184.168
-185.832
-180.962
-174.637
-169.142
-163.257
-156.78
-149.639
-142.256
-136.169
-131.651
-128.275
-125.508
-122.252
-117.866
-112.34
-105.725
-98.255
-90.307
-82.168
-74.214
-66.934
-60.613
-55.35
-51.144
-47.867
-45.387
-43.634
-42.485
-41.795
-41.427
-41.192
-40.953
-40.654
-40.249
-39.723
-39.082
-38.284
-37.309
-36.301
-35.434
-34.692
-34.098
-33.695
-33.301
-33.583
-35.168
-37.198
-39.406
-40.181
-37.647
-33.973
-30.528
-29.493
-33.993
-41.454
-49.578
-56.856
-60.552
-62.808
-66.748
-72.518
-79.901
-86.244
-86.853
-81.883
-75.102
-70.351
-73.2
-84.135
-97.849
-110.313
-117.237
-117.618
-115.305
-112.726
-111.453
-112.061
-112.984
-113.434
-113.459
-112.99
-112.254
-111.321
-109.98
-108.159
-105.9
-103.207
-100.082
-96.545
-92.624
-88.353
-83.792
-78.975
-73.912
-68.623
-63.14
-57.49
-51.709
-45.827
-39.872
-33.879
-27.882
-21.917
-16.019
-10.223
-4.561
0.933
6.228
11.293
16.098
20.616
24.821
28.688
32.196
35.327
38.063
40.391
42.3
43.781
44.829
45.441
45.618
45.362
44.679
43.578
42.068
40.164
37.881
35.237
32.252
28.947
25.346
21.473
17.355
13.017
8.487
3.794
-1.035
-5.971
-10.986
-16.052
-21.141
-26.227
-31.284
-36.287
-41.212
-46.038
-50.743
-55.31
-59.721
-63.961
-68.018
-71.88
-75.538
-78.986
-82.218
-85.233
-88.028
-90.606
-92.97
-95.125
-97.077
-98.836
-100.41
-101.811
-103.051
-104.143
-105.1
-105.937
-106.668
-107.308
-107.873
-108.377
-108.835
-109.26
-109.667
-110.068
-110.475
-110.9
-111.352
-111.84
-112.371
-112.952
-113.588
-114.282
-115.037
-115.853
-116.731
-117.668
-118.661
-119.705
-120.794
-121.921
-123.077
-124.252
-125.435
-126.615
-127.778
-128.913
-130.004
-131.038
-132.001
-132.877
-133.653
-134.315
-134.847
-135.238
-135.474
-135.544
-135.436
-135.14
-134.649
-133.955
-133.05
-131.93
-130.59
-129.027
-127.241
-125.231
-122.997
-120.543
-117.872
-114.99
-111.904
-108.622
-105.155
-101.514
-97.714
-93.768
-89.693
-85.505
-81.222
-76.863
-72.449
-68
-63.536
-59.081
-54.654
-50.28
-45.978
-41.773
-37.683
-33.728
-29.928
-26.304
-22.873
-19.653
-16.662
-13.914
-11.423
-9.204
-7.269
-5.628
-4.287
-3.253
-2.528
-2.115
-2.013
-2.218
-2.72
-3.509
-4.571
-5.892
-7.458
-9.251
-11.253
-13.446
-15.81
-18.326
-20.977
-23.739
-26.59
-29.501
-32.44
-35.384
-38.306
-41.181
-43.985
-46.697
-49.286
-51.722
-53.971
-55.987
-57.732
-59.169
-60.258
-60.971
-61.286
-61.196
-60.726
-59.905
-58.754
-57.283
-55.469
-53.305
-50.83
-48.103
-45.204
-42.207
-39.118
-35.972
-32.879
-29.879
-26.943
-23.885
-20.295
-15.904
-10.701
-4.75
1.859
9.011
16.571
24.029
30.411
35.043
37.75
38.766
38.633
37.766
36.694
36.546
39.088
46.007
58.235
75.765
98.025
124.333
153.406
183.262
210.88
232.377
244.651
245.437
233.764
210.414
176.581
133.844
82.014
19.002
-54.354
-134.775
-212.772
-272.736
-306.276
-310.9
-291.977
-266.282
-244.426
-231.668
-230.302
-232.56
-233.637
-232.683
-228.08
-222.783
-218.62
-214.552
-210.19
-204.226
-195.729
-185.049
-172.59
-158.92
-144.581
-129.842
-114.95
-100.05
-85.225
-70.589
-55.636
-39.294
-21.03
-1.386
16.977
30.24
36.572
37.56
38.809
46.744
64.322
89.643
116.247
137.836
151.636
158.568
162.62
166.972
172.586
179.084
185.093
189.928
193.776
196.887
199.482
201.559
202.997
203.806
204.121
204.107
203.894
203.585
203.289
203.103
203.11
203.371
203.873
204.56
205.365
206.185
206.959
207.671
208.296
208.817
209.21
209.427
209.449
209.29
208.956
208.453
207.79
206.968
206.016
204.993
203.96
202.984
202.115
201.38
200.805
200.409
200.206
200.206
200.407
200.79
201.343
202.055
202.918
203.923
205.054
206.284
207.584
208.929
210.292
211.65
212.982
214.26
215.458
216.562
217.56
218.439
219.187
219.776
220.173
220.366
220.344
220.064
219.486
218.577
217.299
215.655
213.668
211.31
208.536
205.436
202.122
198.524
194.652
190.531
185.922
181.497
177.913
174.262
170.283
164.301
154.312
142.581
130.628
120.704
115.894
113.524
111.331
107.777
100.299
90.787
81.156
71.858
64.075
57.177
50.344
43.773
37.389
31.28
25.653
20.422
15.525
11.018
6.932
3.276
0.074
-2.653
-4.886
-6.6
-7.765
-8.387
-8.471
-8.016
-7.028
-5.515
-3.486
-0.958
2.05
5.52
9.429
13.754
18.467
23.539
28.938
34.631
40.582
46.755
53.114
59.621
66.237
72.926
79.646
86.357
93.023
99.609
106.07
112.368
118.462
124.314
129.899
135.199
140.178
144.805
149.08
153.002
156.567
159.784
162.627
165.057
167.087
168.751
169.962
170.624
170.805
170.508
169.726
168.693
166.83
163.577
159.779
155.706
152.898
153.195
154.608
155.824
154.873
149.04
140.775
132.16
124.628
120.531
118.23
116.06
113.666
110.038
105.791
101.707
97.651
93.734
89.911
86.035
82.212
78.526
74.952
71.482
68.122
64.864
61.695
58.605
55.567
52.555
49.563
46.584
43.605
40.612
37.59
34.523
31.393
28.187
24.887
21.479
17.946
14.278
10.464
6.498
2.379
-1.894
-6.323
-10.91
-15.657
-20.562
-25.62
-30.829
-36.185
-41.684
-47.322
-53.094
-58.991
-65.012
-71.153
-77.412
-83.782
-90.249
-96.79
-103.381
-109.993
-116.595
-123.148
-129.607
-135.926
-142.055
-147.945
-153.537
-158.754
-163.523
-167.798
-171.547
-174.775
-177.507
-179.749
-181.566
-183.08
-184.333
-185.32
-185.951
-186.004
-185.354
-184.027
-181.974
-179.112
-175.608
-171.788
-168.307
-166.15
-165.892
-167.704
-171.775
-178.237
-186.877
-197.111
-207.569
-216.212
-221.684
-223.191
-219.872
-210.852
-195.316
-172.944
-144.662
-112.446
-77.729
-41.543
-5.44
28.478
57.412
78.662
90.756
93.238
85.296
65.875
34.953
-6.271
-55.162
-108.434
-163.394
-217.639
-268.032
-310.835
-343.222
-363.728
-372.338
-369.936
-357.332
-335.783
-307.768
-276.842
-246.221
-218.063
-193.549
-173.343
-158.214
-148.418
-143.116
-140.43
-138.377
-135.745
-132.008
-126.833
-119.692
-110.272
-98.817
-86.226
-73.719
-62.024
-51.357
-41.797
-33.48
-26.537
-20.993
-16.571
-12.71
-9.034
-5.414
-1.825
1.686
5.124
8.557
11.982
15.299
18.423
21.294
23.893
26.255
28.386
30.259
31.833
33.056
33.897
34.36
34.453
34.189
33.579
32.636
31.381
29.852
28.089
26.122
23.98
21.68
19.25
16.723
14.136
11.529
8.933
6.375
3.878
1.463
-0.847
-3.03
-5.079
-6.991
-8.758
-10.379
-11.838
-13.116
-14.219
-15.154
-15.898
-16.437
-16.762
-16.859
-16.752
-16.482
-16.044
-15.413
-14.688
-13.983
-13.25
-12.508
-11.79
-10.891
-10.412
-10.938
-11.666
-12.362
-11.54
-7.416
-1.989
3.411
6.803
5.474
1.812
-2.158
-5.049
-4.564
-2.348
-0.064
1.92
2.592
2.546
2.546
2.455
2.38
2.28
2.011
1.688
1.401
1.139
0.907
0.729
0.616
0.574
0.613
0.73
0.919
1.198
1.584
2.083
2.704
3.454
4.337
5.361
6.532
7.849
9.314
10.925
12.681
14.579
16.615
18.783
21.076
23.487
26.006
28.624
31.328
34.107
36.948
39.836
42.758
45.698
48.643
51.576
54.485
57.353
60.168
62.914
65.581
68.154
70.622
72.976
75.204
77.3
79.255
81.063
82.721
84.226
85.575
86.768
87.807
88.694
89.433
90.028
90.486
90.815
91.024
91.121
91.119
91.029
90.865
90.638
90.365
90.06
89.736
89.411
89.098
88.812
88.568
88.38
88.26
88.221
88.274
88.429
88.695
89.079
89.587
90.222
90.986
91.88
92.902
94.049
95.315
96.694
98.175
99.748
101.403
103.124
104.897
106.706
108.532
110.356
112.158
113.917
115.609
117.21
118.696
120.042
121.223
122.213
122.988
123.523
123.794
123.778
123.455
122.803
121.802
120.437
118.691
116.552
114.009
111.054
107.68
103.886
99.672
95.04
89.997
84.55
78.708
72.482
65.889
58.943
51.666
44.077
36.201
28.065
19.7
11.14
2.419
-6.426
-15.361
-24.346
-33.344
-42.316
-51.224
-60.034
-68.709
-77.216
-85.519
-93.584
-101.382
-108.883
-116.06
-122.884
-129.327
-135.363
-140.967
-146.121
-150.801
-154.988
-158.662
-161.797
-164.373
-166.376
-167.792
-168.611
-168.836
-168.474
-167.548
-166.107
-164.198
-161.879
-159.223
-156.29
-153.149
-149.858
-146.453
-142.993
-139.536
-136.133
-132.857
-129.75
-126.827
-124.102
-121.534
-119.011
-116.443
-113.648
-110.358
-106.47
-101.854
-96.478
-90.769
-85.057
-79.422
-74.322
-69.547
-64.511
-59.702
-54.689
-49.689
-45.308
-39.598
-31.187
-17.015
5.144
33.137
64.713
93.131
111.737
117.702
107.195
81.86
45.852
1.472
-47.787
-102.102
-163.079
-228.718
-293.653
-347.963
-382.592
-393.817
-383.513
-359.778
-330.6
-300.894
-273.764
-248.811
-225.12
-203.537
-185.089
-171.13
-162.735
-159.149
-158.238
-158.144
-157.795
-156.599
-154.512
-151.49
-147.105
-141.562
-135.792
-130.502
-126.126
-122.83
-120.388
-118.678
-117.816
-117.645
-117.784
-117.931
-117.83
-117.394
-116.716
-115.828
-114.692
-113.315
-111.734
-110.003
-108.197
-106.352
-104.472
-102.577
-100.697
-98.884
-97.177
-95.59
-94.121
-92.753
-91.471
-90.259
-89.095
-87.95
-86.801
-85.63
-84.418
-83.156
-81.827
-80.412
-78.896
-77.257
-75.48
-73.556
-71.476
-69.237
-66.839
-64.286
-61.582
-58.738
-55.762
-52.66
-49.441
-46.112
-42.684
-39.168
-35.577
-31.924
-28.225
-24.497
-20.759
-17.029
-13.327
-9.671
-6.079
-2.571
0.837
4.125
7.277
10.276
13.106
15.752
18.198
20.43
22.437
24.206
25.73
26.998
28.004
28.742
29.208
29.399
29.314
28.951
28.312
27.399
26.215
24.764
23.053
21.088
18.878
16.431
13.757
10.868
7.775
4.489
1.024
-2.609
-6.394
-10.32
-14.371
-18.534
-22.794
-27.138
-31.551
-36.019
-40.529
-45.066
-49.618
-54.173
-58.717
-63.239
-67.727
-72.171
-76.558
-80.88
-85.125
-89.284
-93.35
-97.312
-101.163
-104.896
-108.502
-111.976
-115.309
-118.497
-121.532
-124.408
-127.122
-129.666
-132.039
-134.234
-136.25
-138.085
-139.735
-141.199
-142.477
-143.569
-144.474
-145.194
-145.731
-146.086
-146.264
-146.267
-146.1
-145.77
-145.282
-144.643
-143.861
-142.942
-141.897
-140.735
-139.464
-138.096
-136.642
-135.113
-133.522
-131.88
-130.202
-128.498
-126.784
-125.07
-123.369
-121.692
-120.052
-118.457
-116.918
-115.444
-114.043
-112.723
-111.488
-110.346
-109.298
-108.348
-107.496
-106.743
-106.085
-105.52
-105.044
-104.65
-104.332
-104.082
-103.89
-103.747
-103.64
-103.557
-103.485
-103.408
-103.312
-103.18
-102.997
-102.746
-102.411
-101.977
-101.43
-100.756
-99.942
-98.978
-97.852
-96.557
-95.083
-93.426
-91.581
-89.545
-87.318
-84.9
-82.295
-79.51
-76.552
-73.43
-70.155
-66.738
-63.196
-59.542
-55.794
-51.969
-48.086
-44.165
-40.23
-36.302
-32.407
-28.567
-24.807
-21.148
-17.614
-14.226
-11
-7.952
-5.095
-2.442
-0.002
2.213
4.198
5.947
7.458
8.724
9.745
10.521
11.059
11.366
11.454
11.332
11.016
10.523
9.877
9.105
8.233
7.284
6.29
5.287
4.314
3.425
2.667
2.08
1.709
1.594
1.768
2.258
3.074
4.199
5.618
7.31
9.251
11.431
13.821
16.384
19.102
21.947
24.9
27.951
31.067
34.223
37.447
40.798
44.372
48.309
52.719
57.737
63.579
70.371
78.149
86.843
96.189
105.933
115.942
126.01
135.836
145.356
154.771
164.57
175.662
188.857
204.545
223.096
244.891
269.654
296.274
323.004
347.392
366.768
379.035
382.058
373.342
352.462
321.339
282.063
237.567
188.544
131.864
68.14
1.584
-59.858
-102.018
-115.938
-99.803
-57.466
-3.232
49.062
90.824
116.798
131.189
140.809
148.728
157.658
165.989
169.818
168.787
162.778
152.875
142.233
132.403
124.313
118.798
115.557
114.084
114.173
115.305
116.768
118.185
119.163
119.385
118.865
117.688
115.977
113.998
112.062
110.329
108.881
107.758
106.901
106.275
105.841
105.516
105.205
104.844
104.396
103.86
103.269
102.645
101.998
101.343
100.694
100.074
99.514
99.036
98.649
98.362
98.185
98.133
98.221
98.465
98.877
99.467
100.242
101.211
102.379
103.751
105.333
107.121
109.112
111.303
113.689
116.266
119.031
121.975
125.09
128.366
131.792
135.352
139.033
142.815
146.679
150.605
154.571
158.557
162.542
166.506
170.428
174.287
178.064
181.74
185.295
188.712
191.972
195.06
197.96
200.658
203.142
205.403
207.43
209.217
210.758
212.051
213.093
213.885
214.428
214.726
214.785
214.613
214.218
213.613
212.81
211.824
210.671
209.367
207.932
206.382
204.738
203.019
201.244
199.433
197.605
195.78
193.976
192.212
190.503
188.867
187.318
185.869
184.533
183.319
182.235
181.289
180.486
179.828
179.316
178.95
178.727
178.642
178.689
178.858
179.14
179.522
179.992
180.532
181.125
181.754
182.402
183.051
183.682
184.274
184.8
185.242
185.585
185.801
185.856
185.717
185.351
184.737
183.879
182.759
181.338
179.622
177.649
175.446
173.048
170.448
167.576
164.413
161.025
157.327
153.074
148.214
142.814
136.865
130.64
123.726
114.719
104.016
93.061
83.892
80.487
82.741
86.474
88.269
83.007
69.471
52.791
35.566
20.624
10.349
1.588
-5.235
-8.673
-10.243
-8.619
-6.442
-7.461
-11.831
-20.724
-31.411
-40.568
-47.337
-50.244
-50.753
-50.6
-50.101
-50.108
-50.154
-49.605
-48.591
-46.996
-44.882
-42.411
-39.489
-36.051
-32.126
-27.719
-22.851
-17.562
-11.885
-5.856
0.477
7.062
13.868
20.862
28.002
35.252
42.571
49.918
57.255
64.547
71.754
78.838
85.763
92.496
99.004
105.26
111.234
116.9
122.235
127.215
131.822
136.035
139.841
143.225
146.181
148.707
150.804
152.477
153.735
154.588
155.05
155.137
154.865
154.246
153.293
152.02
150.446
148.594
146.487
144.147
141.591
138.837
135.907
132.823
129.609
126.284
122.865
119.373
115.844
112.321
108.859
105.508
102.301
99.266
96.437
93.845
91.528
89.522
87.823
86.415
85.273
84.357
83.631
83.07
82.592
82.073
81.459
80.753
80.06
79.598
79.511
79.844
80.626
81.888
83.485
85.117
86.277
86.216
84.309
80.159
73.653
64.975
54.75
43.966
33.786
25.685
21.266
22.118
29.379
43.531
63.568
87.192
112.483
138.003
164.021
191.76
220.324
245.492
259.286
253.205
222.749
170.478
105.802
38.918
-23.348
-78.887
-129.88
-177.219
-218.804
-252.053
-274.504
-285.683
-287.249
-281.084
-269.015
-253.306
-236.717
-221.411
-208.696
-199.167
-192.606
-188.626
-186.958
-186.862
-187.089
-186.829
-185.728
-183.701
-181.101
-178.266
-175.358
-172.731
-170.859
-169.963
-170.102
-171.206
-172.989
-175.232
-177.787
-180.437
-183.014
-185.411
-187.522
-189.317
-190.816
-192.006
-192.883
-193.46
-193.73
-193.712
-193.446
-192.955
-192.281
-191.474
-190.575
-189.642
-188.708
-187.785
-186.881
-185.992
-185.103
-184.208
-183.288
-182.318
-181.281
-180.163
-178.945
-177.615
-176.157
-174.551
-172.776
-170.815
-168.649
-166.271
-163.672
-160.847
-157.795
-154.517
-151.017
-147.301
-143.379
-139.255
-134.936
-130.431
-125.748
-120.902
-115.904
-110.769
-105.514
-100.156
-94.717
-89.217
-83.679
-78.125
-72.577
-67.058
-61.59
-56.198
-50.903
-45.728
-40.694
-35.825
-31.142
-26.665
-22.416
-18.414
-14.676
-11.221
-8.064
-5.219
-2.7
-0.517
1.318
2.798
3.917
4.668
5.05
5.06
4.699
3.969
2.875
1.422
-0.382
-2.527
-5.002
-7.795
-10.893
-14.282
-17.946
-21.868
-26.034
-30.425
-35.024
-39.814
-44.775
-49.889
-55.139
-60.505
-65.969
-71.514
-77.122
-82.776
-88.46
-94.158
-99.855
-105.538
-111.194
-116.809
-122.374
-127.878
-133.312
-138.669
-143.941
-149.122
-154.21
-159.199
-164.088
-168.874
-173.559
-178.14
-182.618
-186.995
-191.271
-195.447
-199.526
-203.51
-207.399
-211.196
-214.904
-218.523
-222.056
-225.504
-228.867
-232.148
-235.344
-238.457
-241.484
-244.425
-247.278
-250.04
-252.709
-255.28
-257.751
-260.116
-262.371
-264.508
-266.522
-268.404
-270.147
-271.743
-273.182
-274.457
-275.559
-276.48
-277.21
-277.742
-278.069
-278.183
-278.077
-277.743
-277.176
-276.37
-275.322
-274.028
-272.484
-270.69
-268.645
-266.351
-263.81
-261.024
-257.997
-254.733
-251.236
-247.513
-243.571
-239.418
-235.063
-230.516
-225.79
-220.9
-215.86
-210.687
-205.395
-200.002
-194.525
-188.983
-183.393
-177.773
-172.143
-166.519
-160.924
-155.377
-149.898
-144.506
-139.22
-134.06
-129.045
-124.191
-119.511
-115.018
-110.722
-106.634
-102.765
-99.124
-95.716
-92.552
-89.639
-86.987
-84.603
-82.486
-80.629
-79.026
-77.67
-76.55
-75.659
-74.98
-74.498
-74.203
-74.095
-74.181
-74.463
-74.927
-75.544
-76.281
-77.113
-78.023
-78.986
-79.965
-80.913
-81.803
-82.631
-83.411
-84.152
-84.825
-85.373
-85.725
-85.831
-85.676
-85.263
-84.6
-83.675
-82.472
-81.026
-79.431
-77.797
-76.216
-74.714
-73.22
-71.719
-70.299
-69
-67.838
-66.729
-65.357
-63.455
-60.992
-57.947
-54.343
-50.362
-46.055
-41.658
-37.939
-35.638
-35.137
-36.54
-39.407
-42.804
-46.059
-48.346
-48.176
-43.977
-34.445
-18.798
2.73
29.004
59.063
91.888
125.645
157.838
185.61
206.359
218.265
220.348
211.564
190.639
157.778
115.125
65.552
11.733
-45.765
-107.952
-173.402
-236.922
-289.851
-323.893
-336.141
-329.673
-312.267
-291.577
-271.813
-254.223
-237.759
-221.788
-206.789
-193.557
-183.389
-176.879
-173.801
-173.659
-175.161
-176.909
-178.29
-179.136
-179.437
-179.308
-178.644
-177.135
-175.032
-172.972
-171.262
-169.991
-169.096
-168.315
-167.567
-167.025
-166.613
-166.033
-165.105
-163.677
-161.701
-159.293
-156.494
-153.254
-149.592
-145.567
-141.238
-136.703
-132.026
-127.225
-122.341
-117.402
-112.422
-107.426
-102.42
-97.396
-92.35
-87.27
-82.136
-76.941
-71.681
-66.346
-60.935
-55.44
-49.847
-44.148
-38.334
-32.4
-26.343
-20.16
-13.851
-7.419
-0.87
5.786
12.537
19.372
26.284
33.262
40.299
47.384
54.505
61.648
68.803
75.956
83.09
90.19
97.238
104.217
111.112
117.907
124.587
131.139
137.548
143.803
149.891
155.803
161.528
167.059
172.387
177.505
182.41
187.097
191.564
195.812
199.84
203.65
207.247
210.634
213.816
216.801
219.596
222.209
224.65
226.929
229.057
231.047
232.91
234.659
236.309
237.872
239.361
240.79
242.17
243.513
244.83
246.132
247.427
248.724
250.029
251.348
252.687
254.048
255.435
256.846
258.283
259.742
261.221
262.715
264.218
265.724
267.223
268.708
270.168
271.591
272.967
274.281
275.521
276.674
277.723
278.657
279.459
280.115
280.612
280.937
281.075
281.016
280.748
280.26
279.543
278.59
277.395
275.95
274.254
272.304
270.099
267.641
264.933
261.978
258.784
255.358
251.709
247.848
243.788
239.543
235.13
230.563
225.864
221.05
216.144
211.168
206.143
201.095
196.047
191.023
186.048
181.147
176.343
171.66
167.122
162.752
158.571
154.601
150.86
147.366
144.137
141.188
138.531
136.18
134.142
132.427
131.041
129.987
129.268
128.884
128.835
129.115
129.718
130.637
131.861
133.377
135.168
137.219
139.511
142.023
144.733
147.619
150.655
153.817
157.079
160.415
163.797
167.198
170.589
173.945
177.238
180.442
183.531
186.481
189.267
191.868
194.263
196.433
198.361
200.027
201.416
202.517
203.318
203.809
203.985
203.84
203.375
202.594
201.504
200.112
198.427
196.462
194.23
191.75
189.037
186.108
182.98
179.673
176.207
172.606
168.895
165.096
161.233
157.334
153.429
149.552
145.736
142.007
138.394
134.929
131.648
128.593
125.8
123.296
121.109
119.267
117.791
116.697
115.983
115.623
115.586
115.844
116.357
117.099
118.027
119.09
120.253
121.478
122.739
124.019
125.286
126.512
127.703
128.903
130.191
131.688
133.485
135.696
138.507
142.035
146.339
151.361
156.86
162.613
168.513
174.413
180.092
185.48
190.687
196.169
202.803
211.254
221.817
234.64
249.772
267.062
285.808
304.416
320.525
331.991
337.258
334.995
323.896
302.762
271.235
231.04
185.7
137.696
88.603
39.005
-11.658
-59.663
-99.198
-126.083
-135.536
-128.145
-109.772
-85.03
-60.021
-39.036
-21.197
-5.843
7.418
18.849
26.936
30.538
30.507
28.81
26.901
25.544
25.016
25.095
25.896
27.931
30.92
33.949
36.516
38.328
39.338
39.874
40.009
39.585
38.727
37.756
36.907
36.373
36.208
36.298
36.609
37.18
37.999
39.025
40.193
41.422
42.654
43.87
45.033
46.089
46.997
47.727
48.259
48.595
48.738
48.69
48.464
48.076
47.539
46.858
46.043
45.1
44.039
42.876
41.624
40.298
38.911
37.476
36
34.494
32.96
31.4
29.815
28.201
26.559
24.89
23.196
21.481
19.745
17.989
16.215
14.423
12.614
10.784
8.933
7.055
5.148
3.21
1.238
-0.77
-2.818
-4.907
-7.04
-9.217
-11.44
-13.712
-16.033
-18.405
-20.829
-23.305
-25.831
-28.406
-31.03
-33.7
-36.413
-39.165
-41.954
-44.776
-47.627
-50.503
-53.401
-56.314
-59.24
-62.172
-65.106
-68.036
-70.956
-73.86
-76.741
-79.594
-82.413
-85.19
-87.921
-90.598
-93.217
-95.772
-98.257
-100.667
-102.998
-105.244
-107.401
-109.467
-111.437
-113.309
-115.08
-116.749
-118.314
-119.775
-121.129
-122.378
-123.52
-124.556
-125.486
-126.31
-127.031
-127.648
-128.164
-128.581
-128.901
-129.128
-129.264
-129.313
-129.279
-129.166
-128.979
-128.722
-128.402
-128.024
-127.594
-127.119
-126.603
-126.056
-125.482
-124.89
-124.286
-123.677
-123.07
-122.472
-121.891
-121.335
-120.81
-120.324
-119.885
-119.501
-119.179
-118.928
-118.753
-118.663
-118.663
-118.761
-118.961
-119.27
-119.692
-120.231
-120.892
-121.677
-122.589
-123.631
-124.803
-126.107
-127.541
-129.104
-130.796
-132.614
-134.555
-136.617
-138.795
-141.086
-143.485
-145.986
-148.585
-151.274
-154.045
-156.89
-159.801
-162.767
-165.78
-168.83
-171.907
-175.003
-178.109
-181.217
-184.319
-187.407
-190.473
-193.509
-196.509
-199.464
-202.369
-205.218
-208.005
-210.727
-213.382
-215.968
-218.483
-220.926
-223.297
-225.593
-227.814
-229.958
-232.025
-234.013
-235.925
-237.765
-239.536
-241.244
-242.893
-244.485
-246.023
-247.509
-248.941
-250.318
-251.639
-252.9
-254.101
-255.244
-256.332
-257.369
-258.359
-259.303
-260.205
-261.074
-261.918
-262.749
-263.576
-264.408
-265.254
-266.121
-267.007
-267.908
-268.816
-269.716
-270.595
-271.436
-272.218
-272.926
-273.539
-274.006
-274.259
-274.212
-273.789
-272.939
-271.645
-269.913
-267.759
-265.245
-262.512
-259.717
-256.93
-254.11
-251.079
-247.574
-243.491
-238.737
-233.027
-226.331
-219.004
-211.54
-204.98
-199.869
-195.587
-192.745
-192.726
-197.431
-209.869
-228.637
-248.51
-264.162
-269.216
-262.32
-246.998
-225.874
-202.443
-177.843
-150.049
-118.432
-82.968
-45.185
-8.803
22.869
47.353
63.235
69.973
66.654
52.716
29.311
-1.038
-35.222
-70.499
-106.799
-145.014
-183.559
-219.128
-245.571
-255.675
-246.054
-216.854
-172.434
-121.19
-71.951
-32.589
-7.985
1.533
-0.368
-7.009
-12.223
-12.461
-7.517
-0.596
5.624
10.453
14.438
19.351
25.813
32.754
39.165
44.411
48.359
51.417
53.839
55.505
56.476
57.047
57.418
57.751
58.081
58.278
58.306
58.228
58.072
57.847
57.558
57.179
56.693
56.1
55.366
54.446
53.314
51.952
50.364
48.57
46.592
44.455
42.19
39.829
37.396
34.904
32.36
29.774
27.158
24.531
21.918
19.343
16.826
14.392
12.059
9.843
7.76
5.818
4.02
2.369
0.87
-0.471
-1.647
-2.651
-3.477
-4.119
-4.572
-4.831
-4.894
-4.758
-4.426
-3.9
-3.183
-2.279
-1.191
0.077
1.522
3.138
4.923
6.873
8.984
11.254
13.678
16.253
18.974
21.838
24.841
27.979
31.25
34.649
38.175
41.825
45.597
49.487
53.493
57.611
61.837
66.169
70.601
75.13
79.751
84.461
89.256
94.133
99.088
104.117
109.216
114.382
119.608
124.891
130.224
135.602
141.017
146.463
151.932
157.415
162.905
168.393
173.868
179.322
184.745
190.126
195.456
200.723
205.918
211.031
216.053
220.974
225.785
230.479
235.047
239.483
243.779
247.928
251.925
255.765
259.442
262.953
266.293
269.46
272.452
275.266
277.903
280.362
282.643
284.749
286.68
288.44
290.031
291.457
292.722
293.831
294.788
295.596
296.262
296.787
297.177
297.435
297.562
297.561
297.433
297.178
296.796
296.286
295.645
294.872
293.961
292.909
291.712
290.363
288.855
287.181
285.333
283.303
281.082
278.659
276.025
273.169
270.081
266.751
263.168
259.321
255.2
250.796
246.099
241.101
235.795
230.175
224.236
217.975
211.393
204.489
197.266
189.73
181.884
173.738
165.301
156.583
147.597
138.356
128.875
119.171
109.262
99.168
88.91
78.51
67.991
57.376
46.689
35.957
25.203
14.453
3.733
-6.933
-17.519
-27.999
-38.347
-48.541
-58.556
-68.373
-77.971
-87.333
-96.443
-105.287
-113.853
-122.132
-130.116
-137.796
-145.166
-152.217
-158.942
-165.334
-171.391
-177.112
-182.494
-187.54
-192.251
-196.637
-200.71
-204.484
-207.972
-211.184
-214.128
-216.813
-219.252
-221.459
-223.448
-225.226
-226.798
-228.167
-229.346
-230.348
-231.175
-231.814
-232.237
-232.409
-232.316
-231.945
-231.291
-230.361
-229.147
-227.646
-225.891
-223.913
-221.769
-219.544
-217.261
-214.92
-212.539
-210.118
-207.731
-205.543
-203.535
-201.556
-199.494
-197.159
-194.536
-191.838
-188.951
-185.488
-181.404
-176.86
-172.219
-168.222
-165.048
-162.159
-159.402
-156.957
-154.587
-151.82
-147.731
-140.514
-128.976
-113.129
-92.816
-68.398
-41.527
-13.692
13.747
40.278
66.959
93.433
115.786
126.155
116.519
84.229
33.163
-26.917
-85.867
-138.437
-183.024
-220.013
-249.529
-270.1
-279.818
-277.655
-263.846
-239.044
-205.02
-164.751
-121.122
-76.957
-34.711
4.112
37.949
64.765
83.615
94.734
98.865
97.36
91.581
82.537
71.776
61.461
53.026
47.132
44.012
43.318
44.653
47.768
51.975
56.132
59.475
61.608
62.345
61.853
60.277
57.633
54.121
50.079
45.692
41.04
36.122
30.793
24.962
18.603
11.661
4.101
-4.06
-12.799
-22.053
-31.731
-41.766
-52.097
-62.66
-73.409
-84.296
-95.269
-106.288
-117.304
-128.266
-139.124
-149.828
-160.333
-170.598
-180.585
-190.253
-199.565
-208.483
-216.974
-225.004
-232.539
-239.544
-245.988
-251.84
-257.076
-261.673
-265.613
-268.878
-271.455
-273.339
-274.525
-275.015
-274.812
-273.923
-272.359
-270.133
-267.26
-263.758
-259.648
-254.951
-249.691
-243.895
-237.591
-230.809
-223.581
-215.939
-207.916
-199.548
-190.869
-181.914
-172.721
-163.322
-153.756
-144.055
-134.255
-124.39
-114.493
-104.594
-94.723
-84.909
-75.177
-65.551
-56.052
-46.699
-37.509
-28.497
-19.676
-11.057
-2.647
5.546
13.516
21.26
28.776
36.063
43.122
49.955
56.566
62.957
69.134
75.101
80.865
86.432
91.808
97
102.013
106.856
111.533
116.051
120.416
124.631
128.702
132.631
136.421
140.073
143.588
146.964
150.2
153.293
156.238
159.032
161.668
164.139
166.439
168.559
170.491
172.226
173.755
175.07
176.162
177.023
177.645
178.021
178.143
178.007
177.606
176.939
176
174.79
173.308
171.554
169.531
167.242
164.693
161.891
158.842
155.558
152.048
148.325
144.403
140.299
136.029
131.612
127.069
122.419
117.687
112.894
108.065
103.225
98.399
93.611
88.887
84.251
79.73
75.346
71.125
67.088
63.257
59.653
56.295
53.202
50.388
47.87
45.66
43.769
42.21
40.99
40.116
39.593
39.426
39.614
40.158
41.053
42.295
43.874
45.78
48.002
50.526
53.337
56.416
59.746
63.307
67.076
71.032
75.151
79.407
83.776
88.231
92.747
97.298
101.859
106.403
110.908
115.349
119.703
123.947
128.059
132.015
135.795
139.378
142.745
145.879
148.764
151.386
153.737
155.808
157.595
159.095
160.305
161.225
161.858
162.207
162.274
162.061
161.571
160.809
159.782
158.501
156.974
155.214
153.237
151.064
148.716
146.222
143.606
140.888
138.091
135.244
132.381
129.547
126.787
124.135
121.632
119.316
117.217
115.361
113.746
112.342
111.116
110.027
109.032
108.104
107.214
106.324
105.408
104.425
103.323
102.082
100.689
99.132
97.447
95.676
93.893
92.267
91.022
90.331
90.292
90.889
91.962
93.353
94.965
96.648
98.16
99.435
100.774
102.847
106.689
113.35
123.48
137.553
156.079
178.971
205.138
232.704
259.02
281.1
296.462
302.822
297.697
280.331
252.176
215.134
171.347
121.157
63.218
-0.692
-64.23
-117.207
-149.523
-156.908
-142.326
-114.583
-82.692
-51.935
-24.084
2.388
28.485
52.98
73.828
88.395
95.378
95.387
90.006
81.225
70.832
60.319
50.86
43.489
38.893
37.211
38.104
40.911
44.839
49.061
53.043
56.414
58.899
60.442
61.083
60.957
60.343
59.584
58.859
58.232
57.723
57.264
56.828
56.408
55.934
55.309
54.459
53.332
51.921
50.266
48.391
46.306
44.026
41.56
38.936
36.195
33.367
30.467
27.509
24.501
21.462
18.42
15.4
12.426
9.521
6.704
3.998
1.427
-0.988
-3.228
-5.279
-7.134
-8.781
-10.209
-11.408
-12.367
-13.081
-13.545
-13.755
-13.71
-13.412
-12.867
-12.083
-11.073
-9.851
-8.433
-6.836
-5.081
-3.189
-1.18
0.922
3.093
5.308
7.541
9.765
11.955
14.083
16.122
18.045
19.825
21.438
22.86
24.067
25.04
25.756
26.199
26.351
26.197
25.725
24.925
23.787
22.307
20.48
18.308
15.792
12.937
9.753
6.248
2.435
-1.669
-6.049
-10.684
-15.554
-20.637
-25.908
-31.341
-36.911
-42.589
-48.348
-54.16
-59.995
-65.825
-71.621
-77.355
-82.999
-88.527
-93.912
-99.129
-104.155
-108.966
-113.541
-117.862
-121.909
-125.668
-129.125
-132.266
-135.083
-137.567
-139.713
-141.517
-142.979
-144.098
-144.877
-145.322
-145.438
-145.234
-144.719
-143.905
-142.803
-141.427
-139.791
-137.911
-135.802
-133.48
-130.963
-128.267
-125.41
-122.408
-119.279
-116.04
-112.708
-109.298
-105.826
-102.307
-98.757
-95.189
-91.616
-88.05
-84.502
-80.983
-77.501
-74.065
-70.68
-67.352
-64.086
-60.885
-57.75
-54.683
-51.684
-48.753
-45.889
-43.09
-40.354
-37.679
-35.06
-32.496
-29.982
-27.514
-25.089
-22.702
-20.351
-18.03
-15.737
-13.467
-11.216
-8.982
-6.761
-4.549
-2.343
-0.141
2.06
4.262
6.465
8.671
10.879
13.086
15.29
17.487
19.675
21.848
24.002
26.132
28.231
30.295
32.316
34.289
36.207
38.063
39.85
41.561
43.189
44.726
46.167
47.505
48.735
49.849
50.843
51.712
52.449
53.05
53.508
53.819
53.979
53.985
53.835
53.529
53.069
52.461
51.71
50.823
49.808
48.674
47.43
46.087
44.653
43.136
41.544
39.887
38.175
36.423
34.643
32.847
31.055
29.283
27.553
25.888
24.31
22.835
21.483
20.275
19.235
18.403
17.809
17.474
17.422
17.672
18.236
19.128
20.331
21.809
23.525
25.437
27.508
29.714
32.017
34.388
36.796
39.199
41.562
43.87
46.108
48.281
50.417
52.547
54.749
57.14
59.845
63.027
66.772
71.062
75.83
80.897
86.081
91.324
96.464
101.218
105.595
109.818
114.339
120.021
127.484
136.892
148.537
162.701
178.976
196.49
213.663
228.02
237.492
240.602
235.719
221.544
197.795
164.935
124.617
79.846
33.401
-12.247
-54.088
-89.416
-116.611
-134.565
-143.926
-147.41
-146.35
-141.513
-133.462
-120.746
-105.212
-91.613
-84.024
-87.346
-101.3
-120.119
-138.697
-151.866
-158.39
-161.587
-163.717
-166.604
-170.885
-175.374
-179.871
-184.662
-189.756
-195.335
-201.208
-206.918
-212.268
-217.159
-221.477
-225.199
-228.32
-230.856
-232.875
-234.427
-235.513
-236.122
-236.233
-235.843
-234.979
-233.684
-232.016
-230.054
-227.855
-225.457
-222.889
-220.16
-217.279
-214.257
-211.092
-207.783
-204.342
-200.782
-197.127
-193.403
-189.624
-185.801
-181.941
-178.043
-174.111
-170.15
-166.166
-162.165
-158.159
-154.156
-150.171
-146.218
-142.312
-138.46
-134.672
-130.952
-127.306
-123.741
-120.262
-116.871
-113.573
-110.372
-107.274
-104.283
-101.404
-98.639
-95.99
-93.46
-91.05
-88.76
-86.59
-84.539
-82.608
-80.795
-79.1
-77.521
-76.059
-74.713
-73.482
-72.367
-71.365
-70.478
-69.703
-69.038
-68.482
-68.034
-67.692
-67.454
-67.319
-67.284
-67.35
-67.513
-67.773
-68.127
-68.573
-69.109
-69.73
-70.436
-71.223
-72.089
-73.03
-74.045
-75.129
-76.28
-77.495
-78.769
-80.098
-81.477
-82.901
-84.364
-85.861
-87.384
-88.927
-90.484
-92.046
-93.607
-95.158
-96.691
-98.2
-99.675
-101.109
-102.493
-103.821
-105.084
-106.276
-107.389
-108.416
-109.351
-110.188
-110.921
-111.544
-112.052
-112.44
-112.705
-112.842
-112.848
-112.721
-112.459
-112.062
-111.529
-110.862
-110.061
-109.129
-108.069
-106.885
-105.581
-104.163
-102.636
-101.007
-99.282
-97.469
-95.576
-93.61
-91.578
-89.489
-87.35
-85.168
-82.953
-80.71
-78.448
-76.174
-73.894
-71.615
-69.344
-67.085
-64.844
-62.626
-60.434
-58.272
-56.143
-54.049
-51.991
-49.972
-47.991
-46.047
-44.141
-42.271
-40.434
-38.628
-36.85
-35.097
-33.365
-31.65
-29.949
-28.257
-26.572
-24.888
-23.203
-21.511
-19.81
-18.094
-16.361
-14.608
-12.83
-11.025
-9.192
-7.33
-5.439
-3.52
-1.573
0.4
2.396
4.414
6.45
8.5
10.562
12.63
14.7
16.765
18.82
20.856
22.866
24.844
26.782
28.675
30.515
32.297
34.016
35.665
37.239
38.731
40.131
41.433
42.631
43.72
44.696
45.56
46.31
46.947
47.476
47.901
48.225
48.451
48.579
48.611
48.548
48.391
48.146
47.815
47.401
46.901
46.313
45.632
44.862
44.007
43.074
42.072
41.013
39.909
38.78
37.647
36.538
35.474
34.481
33.583
32.811
32.215
31.863
31.806
32.057
32.599
33.375
34.32
35.41
36.594
37.78
38.944
40.119
41.392
42.991
45.11
47.703
50.689
53.969
57.182
59.983
62.019
62.65
61.4
58.302
53.47
47.219
40.466
34.026
28.685
25.638
25.758
29.45
37.258
49.429
65.384
84.521
106.119
129.082
152.627
175.838
197.067
214.59
227.232
233.976
233.971
226.383
210.172
185.692
155.172
121.233
85.75
48.276
7.037
-37.431
-80.726
-114.887
-132.121
-129.192
-109.331
-81.225
-53.5
-31.76
-17.314
-7.102
1.4
9.018
15.771
20.434
22.88
24.413
26.042
28.454
31.894
36.052
40.602
45.367
50.001
54.034
57.222
59.497
60.954
61.85
62.396
62.739
63.015
63.344
63.791
64.391
65.156
66.058
67.073
68.19
69.401
70.702
72.083
73.519
74.957
76.339
77.6
78.677
79.528
80.133
80.477
80.558
80.377
79.938
79.255
78.348
77.224
75.888
74.344
72.598
70.666
68.567
66.324
63.959
61.492
58.942
56.328
53.666
50.972
48.257
45.532
42.807
40.094
37.408
34.764
32.176
29.658
27.223
24.884
22.651
20.535
18.542
16.678
14.945
13.347
11.886
10.562
9.374
8.32
7.399
6.606
5.936
5.384
4.942
4.603
4.357
4.193
4.102
4.072
4.091
4.148
4.231
4.327
4.425
4.511
4.573
4.601
4.58
4.502
4.354
4.127
3.813
3.403
2.892
2.275
1.549
0.71
-0.242
-1.306
-2.481
-3.765
-5.152
-6.639
-8.218
-9.883
-11.624
-13.432
-15.298
-17.21
-19.156
-21.125
-23.103
-25.078
-27.037
-28.966
-30.853
-32.683
-34.444
-36.124
-37.709
-39.188
-40.551
-41.786
-42.884
-43.838
-44.639
-45.282
-45.761
-46.072
-46.212
-46.18
-45.975
-45.598
-45.049
-44.333
-43.452
-42.412
-41.218
-39.876
-38.394
-36.778
-35.039
-33.184
-31.222
-29.163
-27.017
-24.793
-22.502
-20.153
-17.756
-15.32
-12.854
-10.369
-7.871
-5.369
-2.87
-0.381
2.092
4.543
6.968
9.362
11.722
14.046
16.33
18.574
20.777
22.938
25.058
27.137
29.178
31.181
33.148
35.081
36.982
38.852
40.694
42.51
44.3
46.068
47.814
49.539
51.245
52.933
54.602
56.252
57.883
59.494
61.082
62.648
64.188
65.701
67.186
68.64
70.061
71.446
72.791
74.093
75.348
76.553
77.701
78.788
79.811
80.766
81.648
82.457
83.188
83.839
84.411
84.9
85.307
85.63
85.87
86.027
86.103
86.1
86.021
85.872
85.657
85.382
85.052
84.673
84.25
83.789
83.294
82.771
82.227
81.668
81.1
80.533
79.976
79.438
78.932
78.468
78.055
77.701
77.416
77.206
77.077
77.031
77.067
77.185
77.385
77.67
78.042
78.505
79.062
79.716
80.474
81.343
82.325
83.42
84.62
85.922
87.33
88.854
90.517
92.338
94.328
96.495
98.843
101.36
104.026
106.795
109.596
112.357
115.023
117.557
119.956
122.21
124.308
126.224
127.912
129.347
130.516
131.405
132.02
132.396
132.578
132.709
133.031
133.695
134.786
136.284
137.972
139.702
141.376
142.774
143.761
144.466
145.188
146.557
149.485
154.562
162.242
173.029
186.815
202.859
220.039
236.55
250.27
259.514
262.525
257.335
243.785
223.303
197.238
167.957
135.604
97.317
53.845
7.664
-35.832
-65.89
-76.93
-67.121
-37.288
2.929
44.713
79.844
99.106
102.034
91.668
73.866
58.654
50.605
50.332
56.024
62.49
67.136
69.858
71.008
71.874
72.733
72.842
71.879
69.807
66.84
63.434
59.889
56.314
52.816
49.486
46.345
43.377
40.553
37.845
35.253
32.809
30.547
28.495
26.671
25.068
23.653
22.373
21.17
20.008
18.874
17.77
16.709
15.709
14.788
13.972
13.29
12.76
12.393
12.19
12.151
12.283
12.598
13.117
13.854
14.823
16.033
17.488
19.192
21.144
23.339
25.766
28.411
31.262
34.308
37.538
40.942
44.506
48.218
52.061
56.022
60.084
64.226
68.429
72.669
76.924
81.17
85.383
89.542
93.622
97.6
101.455
105.166
108.711
112.07
115.225
118.155
120.844
123.275
125.431
127.3
128.869
130.127
131.067
131.681
131.963
131.91
131.52
130.791
129.725
128.323
126.589
124.527
122.146
119.453
116.46
113.177
109.619
105.8
101.735
97.442
92.937
88.24
83.37
78.345
73.187
67.915
62.551
57.116
51.63
46.115
40.59
35.076
29.593
24.159
18.792
13.512
8.333
3.272
-1.656
-6.437
-11.058
-15.507
-19.774
-23.849
-27.723
-31.389
-34.842
-38.076
-41.088
-43.876
-46.438
-48.773
-50.885
-52.774
-54.444
-55.9
-57.147
-58.191
-59.041
-59.703
-60.187
-60.503
-60.659
-60.668
-60.539
-60.284
-59.914
-59.441
-58.876
-58.231
-57.518
-56.746
-55.928
-55.073
-54.191
-53.291
-52.384
-51.476
-50.576
-49.692
-48.829
-47.993
-47.189
-46.422
-45.694
-45.008
-44.366
-43.768
-43.215
-42.704
-42.234
-41.803
-41.406
-41.041
-40.703
-40.388
-40.089
-39.802
-39.521
-39.241
-38.956
-38.661
-38.35
-38.02
-37.664
-37.282
-36.868
-36.422
-35.942
-35.427
-34.879
-34.298
-33.687
-33.048
-32.384
-31.702
-31.007
-30.306
-29.609
-28.925
-28.266
-27.646
-27.078
-26.578
-26.161
-25.844
-25.644
-25.579
-25.665
-25.921
-26.365
-27.014
-27.886
-28.999
-30.371
-32.018
-33.955
-36.197
-38.754
-41.637
-44.855
-48.416
-52.323
-56.58
-61.19
-66.156
-71.476
-77.15
-83.171
-89.53
-96.214
-103.207
-110.489
-118.037
-125.825
-133.826
-142.015
-150.363
-158.844
-167.434
-176.104
-184.829
-193.578
-202.319
-211.025
-219.669
-228.223
-236.662
-244.957
-253.075
-260.987
-268.658
-276.058
-283.161
-289.929
-296.321
-302.294
-307.8
-312.807
-317.287
-321.203
-324.506
-327.147
-329.088
-330.345
-330.973
-331.038
-330.622
-329.761
-328.489
-326.911
-325.06
-322.923
-320.461
-317.466
-313.758
-309.429
-304.583
-299.303
-293.94
-288.738
-283.916
-280.159
-277.944
-277.252
-278.137
-280.323
-282.963
-285.563
-287.559
-287.642
-284.87
-278.551
-267.611
-251.781
-231.54
-207.574
-181.466
-155.178
-129.8
-104.565
-78.257
-51.562
-27.593
-13.917
-18.377
-42.324
-82.574
-131.489
-180.98
-229.055
-274.652
-315.52
-348.404
-367.337
-370.426
-361.155
-344.013
-324.716
-305.801
-286.289
-266.733
-247.518
-229.416
-214.397
-202.737
-193.893
-187.422
-182.149
-176.844
-170.914
-164.003
-156.024
-147.306
-138.157
-128.79
-119.537
-110.751
-102.605
-95.121
-88.192
-81.581
-75.076
-68.568
-61.987
-55.276
-48.425
-41.428
-34.287
-27.039
-19.73
-12.376
-4.994
2.397
9.784
17.114
24.315
31.31
38.021
44.392
50.398
56.023
61.257
66.098
70.545
74.607
78.301
81.636
84.615
87.236
89.499
91.413
92.999
94.277
95.273
96.008
96.5
96.768
96.834
96.712
96.417
95.961
95.352
94.604
93.733
92.753
91.681
90.533
89.322
88.061
86.765
85.443
84.105
82.758
81.406
80.055
78.707
77.368
76.038
74.719
73.414
72.123
70.845
69.581
68.329
67.088
65.855
64.626
63.398
62.167
60.931
59.684
58.426
57.151
55.859
54.547
53.213
51.855
50.473
49.066
47.635
46.181
44.706
43.214
41.708
40.194
38.679
37.17
35.674
34.2
32.756
31.353
30
28.706
27.481
26.335
25.279
24.322
23.474
22.745
22.143
21.677
21.356
21.184
21.17
21.318
21.633
22.117
22.773
23.601
24.601
25.771
27.109
28.608
30.262
32.065
34.006
36.074
38.258
40.544
42.917
45.362
47.862
50.399
52.956
55.512
58.048
60.543
62.978
65.332
67.584
69.712
71.698
73.522
75.163
76.604
77.827
78.814
79.55
80.02
80.21
80.108
79.703
78.986
77.949
76.586
74.894
72.868
70.509
67.818
64.796
61.448
57.78
53.799
49.515
44.937
40.079
34.954
29.576
23.963
18.132
12.1
5.886
-0.49
-7.007
-13.646
-20.385
-27.203
-34.079
-40.991
-47.918
-54.838
-61.731
-68.577
-75.355
-82.048
-88.635
-95.1
-101.425
-107.594
-113.59
-119.397
-125.002
-130.389
-135.547
-140.464
-145.129
-149.533
-153.669
-157.53
-161.111
-164.407
-167.416
-170.135
-172.561
-174.693
-176.531
-178.076
-179.329
-180.293
-180.969
-181.363
-181.478
-181.32
-180.893
-180.2
-179.248
-178.041
-176.585
-174.887
-172.955
-170.796
-168.419
-165.836
-163.055
-160.089
-156.947
-153.641
-150.18
-146.574
-142.833
-138.963
-134.971
-130.866
-126.655
-122.347
-117.952
-113.481
-108.948
-104.369
-99.758
-95.133
-90.508
-85.893
-81.295
-76.724
-72.181
-67.673
-63.204
-58.776
-54.395
-50.074
-45.816
-41.619
-37.471
-33.344
-29.211
-25.056
-20.86
-16.617
-12.329
-8.01
-3.702
0.531
4.628
8.53
12.211
15.667
18.887
21.846
24.495
26.778
28.663
30.161
31.285
32.049
32.483
32.677
32.853
33.232
33.96
35.05
36.332
37.641
38.943
40.181
41.22
42.092
43.058
44.746
48.236
54.436
63.836
76.743
93.306
113.367
136.173
160.043
182.512
201.354
214.835
221.436
219.85
208.857
187.991
159.088
125.037
87.687
49.414
10.97
-26.884
-58.871
-81.446
-91.765
-87.266
-71.781
-49.031
-22.019
4.601
29.706
52.919
73.305
91.283
106.393
118.171
127.131
134.041
140.18
146.497
153.297
160.612
168.195
175.805
183.264
190.246
196.379
201.5
205.626
208.894
211.547
213.782
215.715
217.459
219.12
220.76
222.41
224.067
225.701
227.282
228.808
230.272
231.656
232.933
234.053
234.962
235.608
235.937
235.915
235.529
234.776
233.667
232.218
230.448
228.381
226.05
223.479
220.684
217.683
214.495
211.144
207.66
204.075
200.422
196.729
193.025
189.333
185.677
182.079
178.556
175.124
171.8
168.598
165.537
162.635
159.912
157.382
155.061
152.963
151.1
149.482
148.116
147.007
146.157
145.566
145.234
145.158
145.335
145.758
146.422
147.317
148.433
149.76
151.284
152.989
154.86
156.879
159.026
161.281
163.625
166.036
168.492
170.971
173.45
175.907
178.319
180.663
182.917
185.058
187.065
188.917
190.593
192.076
193.347
194.393
195.198
195.75
196.038
196.055
195.791
195.242
194.404
193.275
191.853
190.14
188.14
185.857
183.298
180.471
177.385
174.051
170.483
166.692
162.694
158.504
154.137
149.611
144.942
140.149
135.249
130.261
125.203
120.095
114.953
109.798
104.645
99.513
94.418
89.376
84.402
79.511
74.715
70.029
65.462
61.027
56.732
52.587
48.597
44.771
41.113
37.627
34.318
31.186
28.236
25.467
22.879
20.474
18.25
16.206
14.34
12.651
11.136
9.793
8.617
7.606
6.756
6.063
5.522
5.13
4.881
4.771
4.795
4.947
5.223
5.617
6.125
6.742
7.464
8.285
9.202
10.21
11.305
12.484
13.742
15.075
16.478
17.947
19.478
21.065
22.704
24.389
26.115
27.876
29.667
31.481
33.312
35.153
36.999
38.842
40.677
42.499
44.301
46.079
47.828
49.544
51.223
52.86
54.449
55.988
57.471
58.893
60.247
61.531
62.738
63.864
64.907
65.861
66.723
67.49
68.159
68.728
69.193
69.554
69.807
69.951
69.986
69.913
69.733
69.446
69.055
68.56
67.962
67.263
66.462
65.559
64.553
63.444
62.232
60.917
59.5
57.984
56.371
54.666
52.874
51
49.048
47.022
44.925
42.76
40.527
38.222
35.842
33.387
30.855
28.247
25.568
22.821
20.013
17.153
14.249
11.312
8.346
5.348
2.323
-0.721
-3.766
-6.779
-9.733
-12.606
-15.378
-18.034
-20.571
-22.993
-25.334
-27.658
-30.024
-32.493
-35.101
-37.843
-40.732
-43.781
-47.017
-50.497
-54.249
-58.259
-62.532
-67.059
-71.799
-76.716
-81.648
-86.312
-90.529
-94.202
-97.353
-100.197
-102.879
-105.403
-107.912
-110.615
-113.423
-116.035
-117.806
-117.69
-114.945
-109.261
-100.305
-87.855
-72.434
-55.115
-37.546
-22.119
-10.963
-5.692
-8.167
-19.574
-39.328
-66.426
-99.818
-139.463
-186.66
-240.525
-295.946
-343.907
-375.582
-387.349
-382.284
-367.461
-348.925
-328.759
-304.964
-276.956
-247.597
-221.519
-205.562
-201.494
-205.132
-211.87
-215.465
-213.443
-208.697
-203.063
-198.058
-194.091
-189.184
-182.81
-175.913
-169.145
-163.185
-158.28
-154.053
-150.369
-147.428
-145.133
-143.148
-141.249
-139.234
-137.041
-134.801
-132.553
-130.231
-127.834
-125.394
-122.949
-120.572
-118.304
-116.153
-114.143
-112.315
-110.716
-109.387
-108.342
-107.582
-107.099
-106.882
-106.92
-107.198
-107.693
-108.388
-109.268
-110.318
-111.521
-112.856
-114.296
-115.818
-117.392
-118.988
-120.582
-122.15
-123.672
-125.132
-126.514
-127.804
-128.993
-130.068
-131.015
-131.823
-132.48
-132.976
-133.302
-133.452
-133.421
-133.208
-132.815
-132.246
-131.508
-130.61
-129.56
-128.371
-127.055
-125.625
-124.098
-122.494
-120.83
-119.128
-117.409
-115.692
-114.004
-112.372
-110.811
-109.342
-107.983
-106.749
-105.668
-104.772
-104.07
-103.574
-103.321
-103.344
-103.67
-104.334
-105.327
-106.628
-108.26
-110.262
-112.547
-115.013
-117.717
-120.647
-123.777
-127.315
-130.654
-133.203
-135.768
-138.58
-143.136
-151.226
-160.818
-170.545
-178.386
-181.574
-182.504
-183.199
-185.038
-190.317
-197.346
-204.41
-211.106
-216.38
-220.802
-225.113
-229.145
-232.971
-236.52
-239.618
-242.349
-244.779
-246.868
-248.6
-249.976
-250.986
-251.621
-251.875
-251.735
-251.186
-250.239
-248.909
-247.203
-245.132
-242.712
-239.956
-236.883
-233.516
-229.872
-225.974
-221.842
-217.501
-212.972
-208.282
-203.454
-198.512
-193.481
-188.384
-183.247
-178.092
-172.943
-167.821
-162.749
-157.745
-152.828
-148.016
-143.326
-138.772
-134.367
-130.122
-126.049
-122.155
-118.448
-114.931
-111.607
-108.476
-105.536
-102.783
-100.209
-97.807
-95.566
-93.474
-91.518
-89.686
-87.962
-86.329
-84.773
-83.274
-81.816
-80.38
-78.945
-77.49
-75.996
-74.442
-72.807
-71.072
-69.219
-67.228
-65.083
-62.767
-60.264
-57.561
-54.641
-51.493
-48.102
-44.46
-40.56
-36.396
-31.966
-27.27
-22.311
-17.1
-11.645
-5.958
-0.05
6.067
12.376
18.863
25.513
32.311
39.241
46.282
53.408
60.59
67.799
75.003
82.171
89.268
96.26
103.113
109.802
116.305
122.597
128.651
134.433
139.899
145.019
149.769
154.128
158.077
161.601
164.699
167.387
169.706
171.697
173.383
174.769
175.841
176.597
177.032
177.142
176.921
176.337
175.36
173.986
172.218
170.048
167.449
164.349
160.633
156.2
150.981
144.933
138.045
130.309
121.741
112.392
102.359
91.8
80.855
69.621
58.182
46.626
35.091
23.781
12.941
2.808
-6.392
-14.46
-21.191
-26.363
-29.894
-31.814
-32.285
-31.683
-30.313
-28.383
-26.222
-24.093
-21.994
-19.814
-17.172
-13.394
-8.078
-0.943
8.459
20.104
33.291
46.936
59.388
68.621
72.943
70.607
59.63
39.568
11.712
-22.302
-60.705
-103.35
-151.47
-203.781
-255.249
-297.792
-323.588
-329.423
-318.162
-297.847
-276.362
-258.556
-246.13
-236.96
-229.092
-222.331
-216.943
-213.978
-213.778
-215.27
-217.039
-218.066
-217.856
-216.384
-213.948
-210.763
-207.009
-203.042
-199.245
-195.807
-192.749
-189.941
-187.129
-184.111
-180.763
-176.977
-172.686
-167.865
-162.508
-156.629
-150.248
-143.384
-136.042
-128.227
-119.942
-111.197
-102.027
-92.487
-82.657
-72.62
-62.437
-52.147
-41.77
-31.325
-20.826
-10.287
0.282
10.878
21.491
32.1
42.679
53.203
63.653
74.019
84.299
94.49
104.586
114.581
124.466
134.233
143.873
153.373
162.718
171.893
180.885
189.687
198.292
206.698
214.899
222.892
230.675
238.247
245.605
252.746
259.668
266.366
272.836
279.076
285.084
290.856
296.39
301.683
306.733
311.538
316.095
320.402
324.455
328.249
331.783
335.05
338.047
340.769
343.212
345.372
347.245
348.828
350.116
351.107
351.796
352.18
352.258
352.026
351.482
350.625
349.456
347.976
346.187
344.093
341.701
339.016
336.048
332.806
329.303
325.549
321.561
317.354
312.944
308.35
303.593
298.693
293.672
288.553
283.361
278.12
272.855
267.592
262.356
257.173
252.069
247.07
242.2
237.486
232.949
228.614
224.502
220.634
217.029
213.704
210.675
207.956
205.557
203.487
201.754
200.361
199.311
198.602
198.232
198.194
198.482
199.083
199.986
201.176
202.636
204.348
206.289
208.439
210.774
213.269
215.898
218.634
221.451
224.321
227.214
230.103
232.96
235.757
238.465
241.059
243.513
245.802
247.903
249.794
251.455
252.868
254.016
254.885
255.461
255.734
255.695
255.338
254.658
253.653
252.323
250.67
248.697
246.409
243.814
240.921
237.738
234.278
230.553
226.576
222.361
217.925
213.284
208.454
203.453
198.298
193.007
187.597
182.086
176.488
170.82
165.096
159.331
153.538
147.729
141.916
136.111
130.324
124.563
118.838
113.155
107.519
101.936
96.409
90.942
85.536
80.193
74.916
69.703
64.558
59.48
54.471
49.529
44.654
39.845
35.099
30.416
25.795
21.235
16.738
12.305
7.941
3.653
-0.553
-4.671
-8.693
-12.611
-16.419
-20.11
-23.678
-27.116
-30.419
-33.58
-36.589
-39.439
-42.119
-44.621
-46.932
-49.043
-50.944
-52.622
-54.069
-55.276
-56.233
-56.928
-57.346
-57.467
-57.277
-56.765
-55.92
-54.738
-53.221
-51.381
-49.242
-46.844
-44.23
-41.449
-38.549
-35.578
-32.58
-29.592
-26.647
-23.778
-21.01
-18.355
-15.836
-13.474
-11.265
-9.182
-7.166
-5.11
-2.896
-0.424
2.459
5.952
10.129
14.957
20.282
25.784
31.188
36.361
41.074
45.023
48.229
50.92
53.641
57.382
62.801
70.133
79.664
91.468
104.956
119.136
132.298
141.914
146.052
143.087
131.148
109.212
77.126
36.081
-10.738
-60.543
-111.51
-162.499
-213.493
-261.044
-299.21
-322.803
-326.197
-309.88
-280.199
-243.15
-206.204
-173.369
-143.659
-117.164
-93.915
-74.589
-61.48
-55.168
-54.488
-57.861
-63.309
-69.093
-74.205
-77.739
-78.938
-77.575
-73.876
-68.402
-61.934
-55.306
-49.043
-43.472
-38.794
-34.995
-31.978
-29.581
-27.534
-25.514
-23.336
-20.938
-18.325
-15.59
-12.81
-10.029
-7.31
-4.737
-2.367
-0.245
1.595
3.159
4.456
5.487
6.261
6.783
7.062
7.124
7.007
6.736
6.334
5.817
5.198
4.495
3.733
2.931
2.113
1.294
0.489
-0.284
-1.01
-1.673
-2.263
-2.774
-3.205
-3.555
-3.819
-3.994
-4.079
-4.075
-3.987
-3.818
-3.575
-3.267
-2.905
-2.504
-2.08
-1.652
-1.236
-0.852
-0.52
-0.261
-0.095
-0.044
-0.129
-0.372
-0.795
-1.419
-2.266
-3.355
-4.705
-6.335
-8.26
-10.495
-13.053
-15.945
-19.179
-22.764
-26.703
-30.999
-35.653
-40.661
-46.02
-51.72
-57.753
-64.105
-70.762
-77.706
-84.916
-92.37
-100.043
-107.908
-115.938
-124.102
-132.368
-140.703
-149.075
-157.447
-165.784
-174.051
-182.212
-190.229
-198.069
-205.697
-213.077
-220.178
-226.967
-233.415
-239.492
-245.173
-250.432
-255.247
-259.598
-263.466
-266.835
-269.693
-272.028
-273.833
-275.103
-275.834
-276.026
-275.684
-274.811
-273.416
-271.51
-269.104
-266.216
-262.862
-259.062
-254.837
-250.211
-245.208
-239.855
-234.178
-228.206
-221.968
-215.492
-208.81
-201.949
-194.94
-187.812
-180.594
-173.314
-165.999
-158.678
-151.375
-144.115
-136.923
-129.82
-122.827
-115.965
-109.25
-102.7
-96.329
-90.15
-84.173
-78.41
-72.867
-67.551
-62.468
-57.619
-53.008
-48.634
-44.497
-40.595
-36.925
-33.482
-30.263
-27.262
-24.473
-21.89
-19.507
-17.317
-15.313
-13.49
-11.838
-10.352
-9.023
-7.846
-6.813
-5.918
-5.155
-4.519
-4.006
-3.613
-3.339
-3.181
-3.138
-3.204
-3.381
-3.671
-4.067
-4.563
-5.156
-5.839
-6.618
-7.503
-8.486
-9.557
-10.737
-12.04
-13.475
-15.06
-16.772
-18.575
-20.484
-22.526
-24.612
-26.632
-28.64
-30.619
-32.54
-34.611
-36.231
-36.811
-37.156
-37.499
-39.33
-44.439
-50.817
-57.119
-61.346
-60.762
-57.758
-54.366
-51.981
-52.91
-55.503
-58.084
-60.276
-61.058
-61.013
-60.889
-60.526
-59.999
-59.244
-58.105
-56.686
-55.082
-53.259
-51.187
-48.836
-46.149
-43.091
-39.653
-35.844
-31.699
-27.281
-22.645
-17.885
-13.156
-8.52
-3.984
0.565
5.394
10.566
15.883
21.152
26.156
30.612
34.319
36.814
37.288
35.514
31.855
26.827
21.244
15.745
10.526
6.255
4.117
4.574
7.519
12.618
19.04
26.596
35.896
46.783
58.455
70.533
82.782
95.083
107.564
119.122
127.571
131.662
130.794
124.133
110.844
90.058
61.032
25.263
-13.771
-54.533
-96.306
-139.06
-184.137
-228.407
-266.234
-293.385
-305.147
-301.928
-289.245
-271.758
-255.007
-241.979
-231.151
-221.484
-212.046
-202.598
-194.465
-188.126
-183.017
-178.059
-172.271
-165.32
-157.281
-148.438
-139.027
-129.197
-119.278
-109.725
-100.768
-92.462
-84.751
-77.427
-70.356
-63.445
-56.518
-49.442
-42.14
-34.551
-26.684
-18.578
-10.234
-1.665
7.094
16.022
25.074
34.192
43.339
52.459
61.491
70.376
79.044
87.449
95.566
103.376
110.871
118.051
124.911
131.457
137.708
143.675
149.368
154.801
159.985
164.934
169.671
174.217
178.594
182.822
186.917
190.893
194.762
198.535
202.22
205.825
209.352
212.804
216.188
219.508
222.768
225.97
229.113
232.198
235.222
238.182
241.07
243.878
246.598
249.217
251.725
254.109
256.357
258.454
260.388
262.143
263.706
265.061
266.194
267.09
267.736
268.118
268.223
268.041
267.561
266.774
265.672
264.25
262.504
260.431
258.029
255.299
252.244
248.867
245.175
241.176
236.878
232.293
227.435
222.318
216.959
211.377
205.589
199.618
193.485
187.213
180.825
174.346
167.799
161.209
154.6
147.998
141.426
134.908
128.467
122.126
115.904
109.823
103.901
98.155
92.601
87.253
82.123
77.222
72.56
68.143
63.978
60.067
56.413
53.016
49.875
46.986
44.345
41.944
39.776
37.832
36.1
34.569
33.227
32.059
31.052
30.19
29.46
28.845
28.331
27.902
27.545
27.244
26.988
26.763
26.558
26.363
26.169
25.966
25.75
25.514
25.255
24.971
24.659
24.322
23.961
23.58
23.185
22.783
22.382
21.992
21.624
21.292
21.008
20.787
20.644
20.595
20.658
20.848
21.182
21.678
22.352
23.219
24.294
25.593
27.127
28.908
30.947
33.252
35.83
38.686
41.824
45.246
48.951
52.936
57.197
61.724
66.509
71.538
76.796
82.262
87.917
93.737
99.697
105.769
111.922
118.124
124.342
130.541
136.684
142.732
148.647
154.388
159.914
165.186
170.162
174.805
179.074
182.932
186.345
189.277
191.696
193.57
194.871
195.568
195.638
195.056
193.805
191.871
189.248
185.931
181.92
177.217
171.832
165.773
159.056
151.695
143.704
135.101
125.905
116.147
105.861
95.083
83.845
72.177
60.115
47.698
34.976
21.998
8.812
-4.539
-18.003
-31.521
-45.017
-58.414
-71.64
-84.644
-97.382
-109.798
-121.833
-133.411
-144.46
-154.962
-164.927
-174.378
-183.354
-191.866
-199.897
-207.486
-214.735
-221.67
-228.268
-234.377
-239.677
-244.041
-247.572
-250.369
-252.54
-254.237
-255.518
-256.699
-258.578
-261.547
-265.563
-270.457
-275.604
-280.318
-284.338
-287.098
-287.317
-284.122
-276.81
-264.797
-248.685
-229.321
-207.044
-182.543
-157.153
-132.283
-110.105
-93.08
-82.219
-78.201
-81.95
-94.171
-115.451
-145.645
-183.013
-224.975
-269.728
-315.583
-360.648
-402.582
-438.325
-465.657
-483.768
-492.816
-493.081
-484.815
-468.733
-446.758
-421.978
-397.15
-374.438
-355.22
-340.397
-331.123
-328.019
-330.47
-336.967
-345.797
-355.279
-364.408
-372.598
-378.938
-382.846
-384.371
-383.92
-382.295
-380.427
-378.727
-377.329
-376.487
-376.302
-376.784
-377.907
-379.37
-380.76
-381.896
-382.716
-383.197
-383.402
-383.342
-382.992
-382.413
-381.708
-380.954
-380.218
-379.533
-378.888
-378.278
-377.71
-377.187
-376.714
-376.285
-375.88
-375.475
-375.057
-374.62
-374.164
-373.686
-373.171
-372.603
-371.963
-371.236
-370.407
-369.461
-368.378
-367.14
-365.729
-364.129
-362.328
-360.318
-358.084
-355.613
-352.887
-349.891
-346.611
-343.032
-339.14
-334.923
-330.368
-325.468
-320.215
-314.606
-308.637
-302.307
-295.615
-288.563
-281.152
-273.387
-265.273
-256.818
-248.032
-238.926
-229.514
-219.812
-209.838
-199.611
-189.153
-178.488
-167.639
-156.633
-145.497
-134.259
-122.95
-111.6
-100.243
-88.91
-77.636
-66.454
-55.399
-44.504
-33.804
-23.329
-13.113
-3.186
6.422
15.682
24.568
33.053
41.114
48.727
55.873
62.532
68.688
74.327
79.438
84.01
88.038
91.517
94.445
96.823
98.654
99.945
100.703
100.939
100.667
99.903
98.666
96.976
94.855
92.329
89.423
86.166
82.587
78.716
74.585
70.227
65.675
60.962
56.123
51.193
46.206
41.196
36.199
31.248
26.376
21.616
16.999
12.556
8.316
4.306
0.554
-2.915
-6.078
-8.913
-11.401
-13.522
-15.261
-16.605
-17.541
-18.06
-18.155
-17.82
-17.054
-15.854
-14.221
-12.158
-9.67
-6.762
-3.443
0.277
4.387
8.872
13.718
18.908
24.423
30.245
36.354
42.728
49.347
56.188
63.23
70.449
77.821
85.324
92.933
100.624
108.371
116.151
123.94
131.715
139.455
147.138
154.744
162.256
169.654
176.922
184.042
190.999
197.776
204.36
210.738
216.898
222.832
228.532
233.993
239.21
244.182
248.907
253.384
257.612
261.593
265.327
268.814
272.058
275.059
277.824
280.359
282.672
284.773
286.672
288.382
289.915
291.283
292.499
293.572
294.511
295.321
296.01
296.584
297.053
297.427
297.719
297.94
298.104
298.229
298.323
298.393
298.434
298.434
298.381
298.275
298.121
297.932
297.736
297.57
297.475
297.499
297.677
298.03
298.558
299.232
300.022
300.9
301.863
302.943
304.166
305.541
307.067
308.73
310.474
312.219
313.847
315.191
316.118
316.524
316.367
315.693
314.575
313.102
311.326
309.237
306.843
304.192
301.347
298.38
295.423
292.612
290.207
288.644
288.214
289.08
291.244
294.426
298.357
302.903
307.837
312.875
318.091
323.774
330.495
339.291
350.848
365.346
382.993
403.786
426.94
451.176
474.664
494.846
509.571
517.326
516.391
505.792
486.314
459.211
425.748
386.097
339.055
285.082
228.759
179.193
145.383
131.695
136.19
150.83
167.622
182.363
194.193
205.042
216.514
228.461
239.807
249.157
255.987
260.62
263.871
266.87
270.099
273.577
277.242
280.734
283.698
285.821
286.574
285.441
282.172
276.702
269.162
259.798
248.823
236.481
223.053
208.839
194.164
179.274
164.314
149.418
134.711
120.351
106.554
93.484
81.234
69.862
59.371
49.752
40.995
33.024
25.733
19.005
12.69
6.692
0.971
-4.519
-9.812
-14.943
-19.98
-24.968
-29.913
-34.832
-39.728
-44.601
-49.458
-54.276
-59.005
-63.591
-67.973
-72.112
-75.997
-79.617
-82.97
-86.06
-88.888
-91.465
-93.816
-95.955
-97.894
-99.639
-101.196
-102.575
-103.798
-104.884
-105.855
-106.729
-107.52
-108.241
-108.903
-109.516
-110.083
-110.608
-111.088
-111.526
-111.925
-112.29
-112.626
-112.938
-113.231
-113.509
-113.778
-114.042
-114.301
-114.558
-114.811
-115.062
-115.309
-115.552
-115.791
-116.027
-116.259
-116.488
-116.714
-116.938
-117.16
-117.381
-117.6
-117.818
-118.036
-118.254
-118.473
-118.696
-118.923
-119.157
-119.4
-119.654
-119.92
-120.2
-120.494
-120.803
-121.127
-121.467
-121.821
-122.189
-122.572
-122.969
-123.38
-123.805
-124.242
-124.691
-125.15
-125.618
-126.091
-126.567
-127.042
-127.513
-127.973
-128.42
-128.846
-129.246
-129.614
-129.942
-130.223
-130.448
-130.609
-130.698
-130.706
-130.624
-130.442
-130.154
-129.749
-129.221
-128.561
-127.761
-126.814
-125.713
-124.452
-123.024
-121.424
-119.646
-117.686
-115.54
-113.204
-110.676
-107.953
-105.034
-101.919
-98.607
-95.101
-91.402
-87.513
-83.438
-79.182
-74.752
-70.153
-65.394
-60.484
-55.431
-50.246
-44.938
-39.519
-33.999
-28.391
-22.706
-16.957
-11.156
-5.314
0.554
6.437
12.322
18.199
24.053
29.873
35.646
41.361
47.005
52.564
58.026
63.377
68.604
73.694
78.634
83.413
88.019
92.441
96.668
100.69
104.497
108.081
111.432
114.542
117.402
120.004
122.341
124.406
126.194
127.698
128.914
129.837
130.462
130.785
130.801
130.507
129.9
128.978
127.738
126.181
124.31
122.132
119.654
116.887
113.84
110.524
106.953
103.142
99.103
94.848
90.386
85.726
80.882
75.868
70.702
65.401
59.984
54.47
48.885
43.256
37.614
31.989
26.399
20.867
15.422
10.102
4.958
0.039
-4.621
-8.984
-13.021
-16.711
-20.027
-22.97
-25.562
-27.834
-29.84
-31.633
-33.234
-34.657
-35.917
-37.012
-38.024
-39.053
-40.031
-40.903
-41.598
-41.985
-42.12
-42.09
-41.674
-40.602
-38.929
-36.702
-34.214
-32.008
-30.003
-27.929
-25.95
-24.213
-22.442
-20.267
-16.689
-10.214
-0.435
12.545
28.897
48.538
70.779
94.447
117.287
136.268
149.382
155.305
152.583
140.052
117.406
85.284
45.628
1.47
-44.498
-89.997
-132.344
-168.709
-197.128
-216.594
-227.119
-229.833
-226.065
-217.124
-205.046
-192.402
-181.123
-172.49
-167.226
-165.289
-166.476
-170.533
-176.612
-183.444
-190.148
-196.237
-201.536
-206.239
-210.505
-214.408
-218.207
-222.29
-226.864
-231.946
-237.389
-242.896
-248.214
-253.209
-257.765
-261.774
-265.17
-267.9
-269.933
-271.29
-271.989
-272.024
-271.387
-270.069
-268.065
-265.412
-262.171
-258.41
-254.204
-249.603
-244.636
-239.328
-233.7
-227.768
-221.55
-215.059
-208.302
-201.299
-194.081
-186.685
-179.149
-171.505
-163.773
-155.975
-148.135
-140.276
-132.427
-124.616
-116.871
-109.222
-101.704
-94.349
-87.194
-80.267
-73.594
-67.198
-61.1
-55.321
-49.881
-44.795
-40.075
-35.73
-31.771
-28.205
-25.038
-22.274
-19.912
-17.95
-16.385
-15.214
-14.431
-14.03
-13.995
-14.31
-14.955
-15.913
-17.172
-18.719
-20.542
-22.626
-24.951
-27.504
-30.267
-33.222
-36.345
-39.611
-42.987
-46.448
-49.972
-53.548
-57.171
-60.833
-64.499
-68.107
-71.594
-74.917
-78.073
-81.089
-83.966
-86.667
-89.168
-91.523
-93.844
-96.181
-98.436
-100.326
-101.583
-102.198
-102.314
-101.987
-101.257
-100.294
-99.362
-99.262
-100.297
-101.517
-102.836
-104.662
-108.428
-117.324
-130.629
-144.093
-153.191
-152.422
-141.978
-127.52
-113.428
-104.111
-100.532
-99.669
-100.185
-101.072
-101.711
-102.839
-104.477
-106.25
-108.059
-109.564
-110.401
-110.508
-109.985
-109.083
-108.084
-107.13
-106.218
-105.265
-104.256
-103.201
-102.086
-100.884
-99.539
-98.014
-96.314
-94.474
-92.522
-90.467
-88.302
-86.009
-83.576
-81.002
-78.283
-75.42
-72.411
-69.253
-65.943
-62.48
-58.866
-55.101
-51.187
-47.124
-42.912
-38.555
-34.063
-29.45
-24.728
-19.913
-15.018
-10.055
-5.041
0.007
5.074
10.141
15.19
20.203
25.16
30.041
34.827
39.498
44.034
48.416
52.628
56.651
60.467
64.059
67.41
70.506
73.333
75.877
78.127
80.072
81.703
83.013
83.996
84.649
84.97
84.956
84.61
83.934
82.932
81.61
79.976
78.038
75.805
73.29
70.505
67.464
64.181
60.67
56.947
53.027
48.93
44.67
40.267
35.738
31.102
26.383
21.601
16.775
11.924
7.069
2.227
-2.581
-7.338
-12.032
-16.65
-21.179
-25.61
-29.928
-34.125
-38.193
-42.124
-45.908
-49.533
-52.985
-56.253
-59.331
-62.212
-64.882
-67.331
-69.539
-71.488
-73.171
-74.579
-75.697
-76.524
-77.062
-77.326
-77.36
-77.207
-76.905
-76.5
-76.025
-75.524
-75.046
-74.618
-74.269
-74.023
-73.897
-73.928
-74.145
-74.52
-74.991
-75.46
-75.778
-75.828
-75.465
-74.462
-72.704
-70.164
-66.918
-63.234
-59.343
-55.297
-51.236
-47.366
-43.565
-39.539
-34.727
-28.164
-19.228
-7.79
6.318
23.14
42.005
61.72
80.447
95.652
105.276
107.926
102.163
86.746
61.503
27.274
-14.025
-59.43
-106.092
-151.546
-192.96
-227.341
-252.705
-268.157
-273.826
-270.953
-261.025
-245.47
-226.34
-206.184
-186.883
-169.63
-155.065
-143.076
-133.381
-125.752
-119.513
-113.641
-107.525
-100.866
-93.573
-85.928
-78.184
-70.507
-63.239
-56.764
-51.25
-46.73
-43.118
-40.187
-37.762
-35.689
-33.75
-31.774
-29.633
-27.244
-24.594
-21.686
-18.504
-15.042
-11.302
-7.292
-3.042
1.418
6.072
10.888
15.83
20.852
25.896
30.926
35.927
40.889
45.815
50.708
55.566
60.401
65.23
70.064
74.914
79.786
84.68
89.602
94.562
99.566
104.623
109.737
114.902
120.115
125.369
130.657
135.966
141.282
146.587
151.865
157.102
162.284
167.397
172.426
177.354
182.167
186.849
191.385
195.761
199.961
203.968
207.769
211.351
214.703
217.813
220.671
223.27
225.6
227.658
229.438
230.937
232.153
233.084
233.733
234.101
234.193
234.015
233.572
232.873
231.929
230.749
229.345
227.731
225.92
223.927
221.766
219.453
217.005
214.438
211.767
209.011
206.184
203.305
200.388
197.45
194.506
191.57
188.656
185.778
182.947
180.175
177.473
174.849
172.313
169.872
167.533
165.3
163.178
161.171
159.28
157.507
155.852
154.313
152.889
151.577
150.372
149.27
148.266
147.354
146.527
145.778
145.099
144.482
143.92
143.405
142.926
142.477
142.049
141.632
141.22
140.804
140.376
139.928
139.453
138.945
138.397
137.801
137.154
136.449
135.682
134.849
133.945
132.968
131.915
130.785
129.575
128.286
126.918
125.471
123.946
122.346
120.674
118.931
117.123
115.254
113.329
111.353
109.333
107.276
105.189
103.081
100.959
98.832
96.709
94.601
92.516
90.464
88.456
86.501
84.611
82.795
81.064
79.428
77.896
76.48
75.188
74.029
73.012
72.145
71.436
70.892
70.519
70.324
70.311
70.485
70.848
71.403
72.15
73.089
74.217
75.53
77.022
78.687
80.516
82.5
84.627
86.885
89.26
91.737
94.301
96.933
99.616
102.33
105.055
107.769
110.451
113.079
115.631
118.084
120.416
122.603
124.625
126.458
128.081
129.47
130.604
131.465
132.034
132.292
132.224
131.817
131.063
129.954
128.487
126.658
124.467
121.917
119.013
115.761
112.168
108.237
103.979
99.402
94.521
89.351
83.91
78.217
72.297
66.181
59.905
53.506
47.018
40.471
33.9
27.344
20.85
14.475
8.27
2.279
-3.45
-8.87
-13.946
-18.651
-22.983
-26.973
-30.651
-34.05
-37.205
-40.131
-42.854
-45.401
-47.792
-50.067
-52.273
-54.424
-56.528
-58.588
-60.554
-62.367
-63.945
-65.107
-65.625
-65.338
-64.15
-62.1
-59.379
-56.145
-52.474
-48.467
-44.288
-39.994
-35.384
-29.877
-22.529
-12.522
0.523
16.695
36.02
58.282
82.659
107.515
130.387
148.831
161.086
165.822
161.78
147.859
123.709
90.155
49.346
3.835
-44.24
-92.753
-139.199
-180.594
-214.185
-238.187
-252.034
-255.859
-249.806
-234.477
-211.335
-182.945
-152.377
-122.348
-95
-71.869
-54.31
-43.212
-38.632
-39.592
-44.434
-51.413
-58.864
-65.556
-70.473
-72.858
-72.486
-69.632
-64.954
-59.313
-53.607
-48.429
-44.185
-41.131
-39.26
-38.477
-38.597
-39.296
-40.243
-41.247
-42.212
-43.12
-44.043
-45.019
-46.084
-47.312
-48.768
-50.499
-52.538
-54.891
-57.562
-60.554
-63.868
-67.5
-71.44
-75.671
-80.168
-84.902
-89.836
-94.939
-100.184
-105.541
-110.985
-116.487
-122.013
-127.527
-132.993
-138.374
-143.636
-148.742
-153.657
-158.351
-162.795
-166.966
-170.844
-174.41
-177.64
-180.517
-183.021
-185.138
-186.855
-188.161
-189.047
-189.509
-189.544
-189.154
-188.345
-187.123
-185.495
-183.471
-181.063
-178.284
-175.148
-171.671
-167.872
-163.768
-159.38
-154.731
-149.843
-144.74
-139.447
-133.987
-128.386
-122.667
-116.856
-110.975
-105.049
-99.1
-93.149
-87.218
-81.328
-75.496
-69.741
-64.079
-58.524
-53.088
-47.784
-42.619
-37.602
-32.737
-28.03
-23.483
-19.097
-14.872
-10.808
-6.901
-3.15
0.451
3.907
7.226
10.414
13.481
16.437
19.292
22.056
24.742
27.362
29.927
32.45
34.945
37.423
39.898
42.384
44.892
47.436
50.027
52.677
55.397
58.196
61.082
64.063
67.144
70.33
73.625
77.031
80.55
84.183
87.929
91.787
95.755
99.83
104.008
108.282
112.648
117.096
121.618
126.205
130.843
135.523
140.23
144.952
149.673
154.377
159.047
163.666
168.216
172.677
177.031
181.258
185.339
189.257
192.993
196.532
199.859
202.962
205.831
208.455
210.827
212.937
214.779
216.346
217.633
218.633
219.341
219.752
219.863
219.678
219.201
218.441
217.407
216.11
214.565
212.79
210.805
208.628
206.272
203.755
201.095
198.32
195.466
192.56
189.619
186.661
183.697
180.733
177.778
174.82
171.829
168.777
165.637
162.406
159.107
155.754
152.36
148.938
145.495
142.061
138.698
135.451
132.356
129.455
126.784
124.419
122.483
121.073
120.262
120.08
120.494
121.471
122.98
124.951
127.299
129.89
132.534
135.082
137.42
139.427
140.99
141.949
142.079
141.202
139.188
135.952
131.484
125.78
118.837
110.72
101.54
91.464
80.722
69.489
57.885
46.034
34.05
22.088
10.357
-0.973
-11.789
-21.999
-31.551
-40.393
-48.461
-55.747
-62.296
-68.195
-73.559
-78.456
-82.893
-86.86
-90.352
-93.385
-96.003
-98.234
-100.066
-101.485
-102.481
-103.052
-103.235
-103.063
-102.537
-101.666
-100.435
-98.811
-96.853
-94.678
-92.323
-89.795
-86.969
-83.547
-79.415
-74.647
-69.285
-63.415
-57.124
-50.389
-43.617
-37.672
-33.059
-29.966
-28.215
-27.079
-26.006
-24.777
-22.541
-17.788
-9.192
4.465
23.518
47.085
74.38
104.915
137.621
170.595
201.322
226.739
244.545
253.711
253.409
242.651
220.616
187.516
145.041
96.097
43.753
-9.401
-60.98
-108.207
-147.818
-177.504
-196.476
-205.122
-204.704
-196.694
-182.526
-164.293
-144.836
-126.321
-110.036
-96.657
-86.091
-78.053
-72.313
-68.146
-64.421
-60.46
-55.958
-50.842
-45.421
-39.98
-34.708
-29.997
-26.313
-23.872
-22.72
-22.769
-23.776
-25.554
-27.965
-30.799
-33.828
-36.882
-39.849
-42.687
-45.413
-48.019
-50.479
-52.785
-54.946
-56.997
-58.977
-60.92
-62.844
-64.778
-66.761
-68.838
-71.06
-73.454
-76.026
-78.77
-81.674
-84.723
-87.9
-91.181
-94.53
-97.911
-101.295
-104.653
-107.963
-111.198
-114.326
-117.317
-120.141
-122.776
-125.202
-127.402
-129.36
-131.062
-132.498
-133.663
-134.553
-135.164
-135.491
-135.533
-135.287
-134.754
-133.936
-132.838
-131.463
-129.819
-127.916
-125.766
-123.383
-120.781
-117.975
-114.982
-111.819
-108.505
-105.058
-101.498
-97.845
-94.12
-90.345
-86.546
-82.743
-78.958
-75.211
-71.523
-67.916
-64.41
-61.025
-57.782
-54.699
-51.797
-49.098
-46.625
-44.399
-42.435
-40.748
-39.348
-38.251
-37.475
-37.039
-36.96
-37.253
-37.929
-39.001
-40.481
-42.38
-44.7
-47.436
-50.579
-54.123
-58.067
-62.415
-67.176
-72.346
-77.902
-83.802
-90.001
-96.467
-103.195
-110.188
-117.436
-124.911
-132.567
-140.398
-148.46
-156.747
-165.143
-173.409
-181.284
-188.679
-195.748
-202.696
-209.565
-216.422
-223.5
-231.301
-240.451
-251.179
-263.099
-275.52
-287.978
-300.137
-311.575
-321.584
-329.219
-333.997
-336.255
-336.847
-336.444
-335.445
-334.17
-333.08
-332.902
-334.082
-336.433
-339.304
-342.132
-344.62
-346.64
-348.093
-348.706
-348.256
-346.804
-344.633
-342.02
-339.115
-335.948
-332.481
-328.743
-324.805
-320.694
-316.4
-311.9
-307.191
-302.307
-297.309
-292.252
-287.164
-282.065
-276.96
-271.86
-266.782
-261.737
-256.739
-251.796
-246.913
-242.093
-237.338
-232.649
-228.024
-223.462
-218.954
-214.492
-210.07
-205.681
-201.324
-196.995
-192.689
-188.396
-184.11
-179.82
-175.521
-171.203
-166.859
-162.48
-158.058
-153.586
-149.06
-144.475
-139.828
-135.118
-130.342
-125.505
-120.609
-115.659
-110.662
-105.627
-100.561
-95.477
-90.383
-85.293
-80.219
-75.172
-70.166
-65.216
-60.334
-55.536
-50.833
-46.238
-41.765
-37.424
-33.227
-29.183
-25.301
-21.59
-18.061
-14.723
-11.584
-8.652
-5.93
-3.419
-1.119
0.973
2.863
4.56
6.076
7.421
8.608
9.647
10.55
11.331
12.003
12.581
13.081
13.513
13.885
14.206
14.478
14.712
14.922
15.124
15.334
15.575
15.869
16.238
16.715
17.329
18.109
19.081
20.274
21.72
23.468
25.591
28.139
31.121
34.514
38.244
42.235
46.45
50.821
55.233
59.637
64.042
68.514
73.276
78.503
84.116
90.011
96.06
101.884
107.134
111.455
114.175
114.8
113.396
110.091
105.215
99.717
94.393
90.007
87.798
88.72
93.119
101.481
114.216
130.801
150.699
173.447
197.285
220.723
243.524
264.083
281.875
297.178
306.577
307.718
297.874
273.377
236.712
191.382
141.059
90.688
41.188
-6.812
-51.138
-89.868
-120.514
-141.763
-154.118
-158.653
-156.802
-150.037
-140.181
-129.684
-120.382
-113.259
-108.743
-106.607
-106.513
-108.21
-110.968
-113.647
-115.479
-116.083
-115.391
-113.707
-111.295
-108.301
-105.011
-101.793
-98.851
-96.25
-93.899
-91.546
-88.976
-86.03
-82.582
-78.552
-73.899
-68.603
-62.664
-56.118
-49.002
-41.356
-33.218
-24.615
-15.584
-6.172
3.541
13.466
23.506
33.565
43.57
53.472
63.223
72.784
82.122
91.21
100.029
108.568
116.807
124.721
132.288
139.486
146.307
152.748
158.809
164.491
169.797
174.73
179.293
183.491
187.327
190.804
193.926
196.695
199.12
201.212
202.984
204.45
205.625
206.526
207.169
207.571
207.747
207.714
207.485
207.074
206.494
205.758
204.878
203.866
202.733
201.488
200.142
198.701
197.173
195.563
193.876
192.114
190.279
188.37
186.386
184.325
182.186
179.963
177.653
175.252
172.753
170.151
167.439
164.611
161.661
158.581
155.364
152.006
148.501
144.844
141.032
137.064
132.939
128.656
124.218
119.627
114.889
110.007
104.99
99.846
94.584
89.216
83.756
78.217
72.615
66.968
61.295
55.615
49.948
44.316
38.741
33.245
27.852
22.583
17.464
12.516
7.763
3.227
-1.07
-5.106
-8.863
-12.323
-15.467
-18.282
-20.755
-22.873
-24.627
-26.011
-27.02
-27.649
-27.9
-27.773
-27.272
-26.406
-25.181
-23.609
-21.705
-19.483
-16.962
-14.161
-11.101
-7.806
-4.299
-0.607
3.243
7.223
11.306
15.462
19.662
23.876
28.076
32.232
36.318
40.306
44.17
47.888
51.437
54.795
57.945
60.869
63.552
65.983
68.152
70.049
71.671
73.014
74.077
74.863
75.375
75.62
75.607
75.346
74.849
74.131
73.208
72.097
70.819
69.393
67.84
66.183
64.445
62.65
60.819
58.978
57.148
55.352
53.613
51.949
50.383
48.932
47.613
46.443
45.435
44.604
43.958
43.509
43.263
43.226
43.402
43.795
44.405
45.231
46.273
47.525
48.984
50.643
52.493
54.526
56.729
59.091
61.599
64.238
66.995
69.854
72.801
75.819
78.895
82.012
85.155
88.31
91.462
94.597
97.702
100.764
103.771
106.713
109.58
112.364
115.058
117.653
120.143
122.523
124.787
126.931
128.951
130.844
132.608
134.244
135.753
137.139
138.408
139.565
140.618
141.573
142.44
143.227
143.943
144.592
145.18
145.71
146.188
146.621
147.015
147.377
147.718
148.048
148.384
148.742
149.138
149.582
150.083
150.651
151.298
152.045
152.921
153.953
155.16
156.563
158.178
160.014
162.065
164.304
166.681
169.141
171.633
174.113
176.551
178.93
181.23
183.428
185.478
187.339
188.992
190.44
191.697
192.799
193.807
194.805
195.977
197.572
199.735
202.527
205.89
209.619
213.583
217.785
222.122
226.37
230.536
234.817
239.739
246.196
254.68
265.208
277.819
292.575
309.165
326.807
343.97
358.494
368.764
373.669
371.98
362.299
344.192
318.808
288.03
254.247
217.241
173.989
124.17
70.665
20.972
-13.687
-27.509
-20.966
-0.107
24.175
44.669
58.608
66.454
72.094
77.558
82.728
87.039
89.211
89.161
88.134
87.084
86.527
86.635
87.13
87.691
88.144
88.171
87.332
85.414
82.401
78.365
73.525
68.068
62.117
55.873
49.513
43.139
36.83
30.604
24.442
18.368
12.401
6.542
0.804
-4.822
-10.364
-15.831
-21.248
-26.647
-32.061
-37.532
-43.087
-48.728
-54.447
-60.225
-66.035
-71.856
-77.657
-83.398
-89.047
-94.568
-99.927
-105.098
-110.055
-114.766
-119.196
-123.303
-127.044
-130.388
-133.32
-135.826
-137.902
-139.545
-140.768
-141.602
-142.099
-142.305
-142.254
-141.953
-141.395
-140.578
-139.501
-138.169
-136.583
-134.723
-132.563
-130.088
-127.298
-124.189
-120.735
-116.874
-112.501
-107.534
-101.94
-95.731
-88.959
-81.676
-73.953
-65.883
-57.593
-49.261
-41.048
-33.08
-25.455
-18.268
-11.642
-5.753
-0.813
3.004
5.587
6.877
6.856
5.511
2.869
-0.989
-5.919
-11.718
-18.214
-25.285
-32.837
-40.782
-49
-57.333
-65.6
-73.661
-81.413
-88.775
-95.685
-102.081
-107.936
-113.274
-118.172
-122.744
-127.067
-131.177
-135.087
-138.805
-142.348
-145.752
-149.049
-152.241
-155.328
-158.309
-161.184
-163.961
-166.627
-169.145
-171.452
-173.479
-175.177
-176.519
-177.489
-178.078
-178.279
-178.087
-177.509
-176.567
-175.28
-173.661
-171.722
-169.471
-166.926
-164.112
-161.059
-157.799
-154.362
-150.772
-147.057
-143.242
-139.353
-135.411
-131.436
-127.444
-123.453
-119.484
-115.56
-111.705
-107.94
-104.286
-100.765
-97.4
-94.209
-91.212
-88.425
-85.862
-83.537
-81.462
-79.649
-78.108
-76.846
-75.872
-75.192
-74.808
-74.725
-74.942
-75.46
-76.275
-77.385
-78.784
-80.465
-82.421
-84.644
-87.123
-89.848
-92.807
-95.988
-99.375
-102.954
-106.707
-110.617
-114.666
-118.835
-123.103
-127.45
-131.856
-136.301
-140.765
-145.227
-149.666
-154.061
-158.394
-162.643
-166.789
-170.814
-174.701
-178.431
-181.991
-185.364
-188.539
-191.502
-194.242
-196.748
-199.01
-201.019
-202.767
-204.247
-205.454
-206.382
-207.028
-207.392
-207.472
-207.268
-206.784
-206.02
-204.979
-203.668
-202.09
-200.251
-198.158
-195.82
-193.246
-190.446
-187.434
-184.22
-180.816
-177.235
-173.489
-169.59
-165.551
-161.384
-157.102
-152.716
-148.24
-143.691
-139.084
-134.438
-129.77
-125.093
-120.425
-115.782
-111.181
-106.634
-102.153
-97.746
-93.421
-89.191
-85.066
-81.058
-77.177
-73.43
-69.824
-66.368
-63.074
-59.952
-57.011
-54.252
-51.677
-49.291
-47.104
-45.141
-43.421
-41.951
-40.739
-39.787
-39.088
-38.651
-38.463
-38.489
-38.691
-39
-39.347
-39.702
-40.035
-40.339
-40.615
-40.777
-40.739
-40.547
-40.234
-39.876
-39.579
-39.242
-38.767
-38.307
-38.058
-38.083
-38.426
-38.877
-39.048
-38.976
-38.816
-38.578
-38.254
-37.855
-37.489
-37.697
-39.41
-43.218
-49.308
-57.546
-67.538
-78.877
-90.918
-102.597
-112.362
-118.486
-119.703
-115.421
-105.535
-90.076
-69.304
-43.527
-13.319
20.033
55.337
91.795
128.862
166.144
202.932
237.738
268.653
294.269
313.373
324.848
327.54
320.087
302.073
274.602
239.91
200.544
158.915
117.426
78.918
46.648
23.078
8.652
1.944
2.043
8.597
21.984
43.459
69.925
95.84
116.487
126.382
125.459
118.599
109.648
103.31
101.51
101.819
102.745
103.101
102.27
101.366
100.828
100.263
99.281
97.472
94.734
91.35
87.671
83.898
80.184
76.682
73.479
70.602
68.063
65.822
63.834
62.125
60.715
59.62
58.879
58.495
58.452
58.724
59.258
60.003
60.94
62.056
63.341
64.791
66.391
68.119
69.97
71.922
73.937
75.983
78.027
80.06
82.102
84.181
86.309
88.483
90.675
92.858
95.034
97.207
99.384
101.595
103.859
106.205
108.701
111.386
114.25
117.251
120.285
123.222
125.979
128.493
130.718
132.626
134.156
135.244
135.847
135.892
135.307
134.005
131.846
128.731
124.641
119.6
113.714
107.135
99.968
92.302
84.226
75.801
67.107
58.223
49.198
40.096
30.999
22.01
13.282
4.945
-2.937
-10.332
-17.264
-23.799
-29.967
-35.79
-41.301
-46.507
-51.412
-56.019
-60.3
-64.225
-67.789
-71.002
-73.901
-76.523
-78.876
-80.955
-82.739
-84.19
-85.285
-86.008
-86.334
-86.254
-85.771
-84.891
-83.643
-82.062
-80.175
-78.002
-75.563
-72.871
-69.948
-66.82
-63.513
-60.056
-56.48
-52.812
-49.085
-45.331
-41.575
-37.84
-34.146
-30.506
-26.939
-23.459
-20.081
-16.82
-13.69
-10.703
-7.872
-5.209
-2.723
-0.424
1.684
3.595
5.307
6.817
8.123
9.227
10.128
10.828
11.327
11.626
11.728
11.635
11.347
10.868
10.197
9.339
8.294
7.065
5.654
4.061
2.288
0.337
-1.793
-4.1
-6.584
-9.246
-12.085
-15.099
-18.289
-21.654
-25.191
-28.9
-32.778
-36.824
-41.035
-45.409
-49.941
-54.627
-59.461
-64.437
-69.546
-74.78
-80.128
-85.578
-91.116
-96.729
-102.4
-108.113
-113.85
-119.594
-125.322
-131.017
-136.655
-142.216
-147.675
-153.01
-158.197
-163.21
-168.027
-172.622
-176.971
-181.05
-184.836
-188.306
-191.439
-194.212
-196.607
-198.605
-200.189
-201.345
-202.059
-202.32
-202.119
-201.451
-200.311
-198.698
-196.614
-194.062
-191.048
-187.58
-183.668
-179.324
-174.562
-169.397
-163.849
-157.936
-151.681
-145.107
-138.241
-131.11
-123.744
-116.173
-108.428
-100.54
-92.543
-84.468
-76.348
-68.217
-60.106
-52.046
-44.071
-36.21
-28.493
-20.948
-13.602
-6.48
0.399
7.013
13.346
19.382
25.108
30.513
35.584
40.314
44.691
48.711
52.371
55.669
58.611
61.203
63.455
65.381
66.995
68.312
69.348
70.12
70.641
70.923
70.981
70.826
70.478
69.954
69.267
68.429
67.448
66.333
65.095
63.751
62.312
60.796
59.22
57.598
55.96
54.339
52.77
51.296
49.945
48.741
47.721
46.929
46.423
46.244
46.381
46.789
47.399
48.126
48.937
49.785
50.557
51.224
51.797
52.308
52.988
54.037
55.385
56.975
58.727
60.252
61.303
61.666
60.667
57.841
53.215
46.768
38.853
30.442
22.176
14.683
9.284
7.071
8.735
15.154
26.71
42.902
63.464
88.225
115.4
142.984
169.899
193.837
214.014
230.47
239.264
236.971
220.986
189.536
146.537
96.574
41.548
-18.346
-83.597
-151.718
-214.605
-260.655
-282.664
-279.64
-257.092
-225.852
-193.254
-162.612
-134.397
-106.005
-76.984
-49.014
-24.297
-5.587
6.188
11.77
12.212
8.987
3.303
-3.836
-10.922
-16.584
-20.096
-21.106
-19.685
-16.261
-11.133
-4.719
2.18
8.943
15.223
20.793
25.716
30.179
34.266
38.146
42.113
46.321
50.844
55.708
60.813
66.064
71.405
76.743
81.98
87.053
91.922
96.581
101.055
105.355
109.483
113.445
117.242
120.887
124.387
127.737
130.935
133.973
136.851
139.572
142.137
144.547
146.803
148.904
150.848
152.634
154.261
155.729
157.038
158.184
159.168
159.992
160.659
161.174
161.544
161.774
161.87
161.841
161.694
161.433
161.067
160.6
160.04
159.395
158.672
157.881
157.033
156.138
155.209
154.257
153.294
152.333
151.385
150.462
149.574
148.732
147.948
147.23
146.59
146.035
145.574
145.215
144.964
144.827
144.806
144.906
145.126
145.469
145.931
146.512
147.207
148.012
148.922
149.927
151.021
152.192
153.428
154.716
156.041
157.386
158.735
160.069
161.368
162.614
163.786
164.864
165.826
166.653
167.322
167.815
168.109
168.186
168.027
167.614
166.931
165.961
164.691
163.109
161.204
158.967
156.39
153.469
150.2
146.582
142.616
138.307
133.658
128.68
123.383
117.779
111.885
105.716
99.293
92.637
85.771
78.719
71.506
64.161
56.712
49.187
41.617
34.031
26.462
18.94
11.494
4.157
-3.044
-10.079
-16.921
-23.542
-29.917
-36.022
-41.834
-47.332
-52.498
-57.315
-61.768
-65.846
-69.537
-72.836
-75.738
-78.239
-80.341
-82.046
-83.359
-84.288
-84.843
-85.035
-84.88
-84.394
-83.595
-82.505
-81.143
-79.535
-77.704
-75.675
-73.475
-71.13
-68.668
-66.116
-63.502
-60.854
-58.199
-55.566
-52.98
-50.467
-48.053
-45.761
-43.611
-41.626
-39.825
-38.223
-36.837
-35.68
-34.764
-34.1
-33.693
-33.548
-33.669
-34.053
-34.699
-35.601
-36.75
-38.135
-39.747
-41.57
-43.589
-45.789
-48.15
-50.652
-53.274
-55.993
-58.784
-61.623
-64.48
-67.33
-70.143
-72.893
-75.552
-78.094
-80.491
-82.719
-84.752
-86.564
-88.133
-89.433
-90.443
-91.143
-91.512
-91.535
-91.198
-90.492
-89.41
-87.949
-86.109
-83.891
-81.297
-78.331
-74.998
-71.302
-67.251
-62.849
-58.105
-53.033
-47.651
-41.98
-36.046
-29.871
-23.483
-16.908
-10.173
-3.307
3.666
10.725
17.848
25.007
32.168
39.281
46.306
53.21
59.97
66.564
72.979
79.197
85.22
91.072
96.777
102.365
107.839
113.179
118.368
123.386
128.23
132.908
137.411
141.701
145.742
149.506
152.965
156.115
158.909
161.238
162.981
163.996
164.183
163.49
161.893
159.369
155.876
151.45
146.239
140.502
134.588
128.817
123.394
118.44
114.126
110.442
107.227
104.296
101.148
97.253
92.312
86.143
78.83
71.055
63.742
57.68
54.049
54.108
58.997
69.92
87.458
111.037
139.493
171.737
206.243
240.959
273.473
300.812
320.167
329.826
328.731
315.557
290.102
253.905
208.832
157.122
99.676
35.677
-33.497
-102.445
-162.293
-204.525
-225.225
-226.431
-215.324
-198.718
-180.434
-162.332
-143.818
-124.565
-106.122
-90.185
-78.726
-73.451
-74.498
-80.681
-90.297
-101.637
-113.13
-123.939
-133.498
-140.917
-145.777
-148.288
-148.946
-148.606
-148.227
-148.226
-148.788
-150.231
-152.626
-155.896
-159.931
-164.372
-168.785
-172.972
-176.844
-180.326
-183.449
-186.218
-188.601
-190.652
-192.442
-194.009
-195.391
-196.597
-197.616
-198.468
-199.172
-199.735
-200.17
-200.472
-200.629
-200.629
-200.46
-200.105
-199.556
-198.808
-197.854
-196.689
-195.307
-193.701
-191.865
-189.793
-187.479
-184.92
-182.112
-179.06
-175.77
-172.251
-168.517
-164.578
-160.443
-156.122
-151.625
-146.963
-142.154
-137.215
-132.163
-127.021
-121.812
-116.565
-111.311
-106.073
-100.872
-95.73
-90.667
-85.71
-80.893
-76.239
-71.763
-67.479
-63.392
-59.506
-55.824
-52.334
-49.001
-45.799
-42.696
-39.681
-36.77
-33.969
-31.283
-28.718
-26.268
-23.952
-21.821
-19.916
-18.274
-16.935
-15.931
-15.329
-15.237
-15.743
-16.922
-18.807
-21.368
-24.581
-28.43
-32.876
-37.888
-43.383
-49.201
-55.202
-61.262
-67.253
-73.056
-78.502
-83.357
-87.409
-90.484
-92.465
-93.316
-93.002
-91.471
-88.695
-84.654
-79.399
-73.091
-65.886
-57.918
-49.334
-40.284
-30.98
-21.718
-12.797
-4.454
3.128
9.834
15.549
20.127
23.43
25.328
25.764
24.778
22.417
18.72
13.732
7.526
0.236
-7.92
-16.701
-25.929
-35.468
-45.222
-55.096
-64.956
-74.663
-84.082
-93.13
-101.771
-109.973
-117.7
-124.911
-131.598
-137.796
-143.596
-149.108
-154.394
-159.483
-164.386
-169.108
-173.674
-178.114
-182.446
-186.663
-190.749
-194.692
-198.486
-202.128
-205.6
-208.86
-211.846
-214.489
-216.746
-218.591
-220.007
-220.983
-221.508
-221.576
-221.19
-220.369
-219.127
-217.476
-215.426
-212.984
-210.167
-207.001
-203.515
-199.742
-195.708
-191.441
-186.967
-182.312
-177.5
-172.554
-167.493
-162.333
-157.092
-151.794
-146.459
-141.112
-135.776
-130.469
-125.215
-120.032
-114.939
-109.953
-105.087
-100.352
-95.759
-91.32
-87.042
-82.933
-78.999
-75.247
-71.681
-68.305
-65.12
-62.127
-59.323
-56.707
-54.274
-52.02
-49.94
-48.028
-46.276
-44.678
-43.229
-41.922
-40.749
-39.7
-38.765
-37.933
-37.192
-36.53
-35.934
-35.392
-34.891
-34.423
-33.98
-33.554
-33.138
-32.721
-32.293
-31.842
-31.355
-30.82
-30.224
-29.551
-28.789
-27.931
-26.974
-25.916
-24.76
-23.502
-22.139
-20.676
-19.121
-17.474
-15.728
-13.883
-11.935
-9.894
-7.78
-5.589
-3.308
-0.959
1.42
3.797
6.16
8.539
11.004
13.581
16.261
19.176
22.6
26.653
31.306
36.524
42.041
48.2
56.062
65.118
74.172
81.474
83.705
81.398
77.726
75.078
78.49
89.236
104.513
123.783
142.645
156.674
165.143
164.721
155.977
143.422
129.203
117.224
109.4
103.538
99.468
97.559
98.763
105.966
120.627
142.249
169.888
202.309
237.469
273.132
306.773
335.026
355.236
366.232
366.982
357.114
338.296
311.611
278.126
239.315
194.637
146.7
101.818
66.571
48.041
47.27
58.973
77.633
97.188
115.218
133.023
149.995
165.556
178.751
187.475
191.481
191.48
188.116
182.791
176.999
171.516
166.845
163.208
160.325
157.909
155.769
153.59
151.047
148.064
144.715
141.116
137.482
133.953
130.564
127.368
124.394
121.622
119.013
116.536
114.169
111.915
109.8
107.824
105.968
104.192
102.427
100.619
98.724
96.707
94.551
92.248
89.806
87.242
84.586
81.85
79.038
76.145
73.161
70.08
66.9
63.623
60.254
56.804
53.287
49.717
46.107
42.469
38.814
35.148
31.479
27.815
24.166
20.547
16.972
13.457
10.021
6.681
3.456
0.365
-2.575
-5.349
-7.942
-10.338
-12.524
-14.487
-16.215
-17.698
-18.924
-19.885
-20.571
-20.976
-21.093
-20.918
-20.447
-19.679
-18.614
-17.255
-15.606
-13.673
-11.464
-8.987
-6.253
-3.274
-0.064
3.365
6.996
10.812
14.797
18.932
23.199
27.577
32.048
36.593
41.193
45.83
50.485
55.141
59.782
64.39
68.95
73.449
77.871
82.205
86.438
90.561
94.565
98.44
102.18
105.78
109.235
112.544
115.705
118.718
121.586
124.311
126.898
129.353
131.683
133.893
135.993
137.989
139.889
141.704
143.44
145.106
146.711
148.264
149.772
151.245
152.691
154.115
155.526
156.929
158.328
159.729
161.134
162.546
163.967
165.398
166.84
168.291
169.751
171.215
172.678
174.133
175.573
176.988
178.367
179.694
180.958
182.146
183.244
184.24
185.12
185.873
186.486
186.952
187.261
187.397
187.348
187.096
186.626
185.923
184.972
183.754
182.256
180.465
178.373
175.98
173.281
170.268
166.934
163.264
159.255
154.913
150.249
145.27
140.001
134.468
128.719
122.817
116.812
110.732
104.595
98.403
92.161
85.88
79.565
73.223
66.856
60.459
54.04
47.611
41.159
34.654
28.037
21.209
14.114
6.731
-0.938
-8.858
-16.983
-25.264
-33.622
-41.964
-50.207
-58.275
-66.111
-73.67
-80.867
-87.595
-93.721
-99.069
-103.501
-106.914
-109.209
-110.342
-110.295
-109.068
-106.714
-103.303
-98.897
-93.563
-87.358
-80.344
-72.63
-64.344
-55.626
-46.662
-37.63
-28.718
-20.148
-12.096
-4.717
1.838
7.453
12.006
15.38
17.507
18.326
17.799
15.931
12.728
8.197
2.391
-4.624
-12.753
-21.827
-31.697
-42.207
-53.161
-64.362
-75.577
-86.589
-97.243
-107.414
-117.005
-125.939
-134.15
-141.539
-148.017
-153.524
-158.031
-161.565
-164.158
-165.842
-166.655
-166.7
-166.187
-165.19
-163.572
-161.288
-158.387
-154.85
-150.904
-146.27
-139.828
-131.883
-123.731
-117.316
-116.132
-120.089
-125.526
-128.73
-124.588
-112.455
-96.948
-81.707
-70.875
-65.818
-63.723
-63.154
-63.111
-63.192
-64.676
-67.938
-72.274
-76.699
-79.799
-80.261
-77.491
-71.065
-60.561
-45.775
-26.781
-3.996
21.961
50.299
80.667
111.996
141.904
169.074
192.647
212.618
230.99
245.941
252.794
248.161
227.695
192.515
147.508
94.353
37.667
-18.488
-69.333
-104.371
-118.492
-111.743
-87.969
-57.436
-26.778
1.982
28.005
53.147
78.087
101.64
122.634
139.669
152.081
160.017
164.628
167.809
170.609
173.408
176.368
179.251
182.051
185.09
187.98
189.808
190.075
188.564
185.312
180.718
175.01
168.108
160.174
151.591
142.631
133.542
124.452
115.31
106.153
97.139
88.401
80.02
72.037
64.405
57.063
49.958
42.986
36.072
29.163
22.213
15.212
8.174
1.119
-5.92
-12.899
-19.808
-26.662
-33.472
-40.246
-46.963
-53.58
-60.042
-66.277
-72.225
-77.827
-83.036
-87.82
-92.16
-96.05
-99.495
-102.51
-105.103
-107.273
-109.018
-110.334
-111.226
-111.703
-111.778
-111.469
-110.797
-109.787
-108.465
-106.858
-104.988
-102.879
-100.55
-98.019
-95.306
-92.432
-89.421
-86.298
-83.088
-79.819
-76.519
-73.215
-69.937
-66.71
-63.559
-60.509
-57.581
-54.798
-52.18
-49.749
-47.522
-45.518
-43.756
-42.251
-41.021
-40.08
-39.441
-39.116
-39.118
-39.454
-40.133
-41.162
-42.546
-44.29
-46.397
-48.869
-51.707
-54.909
-58.473
-62.395
-66.67
-71.288
-76.24
-81.515
-87.101
-92.983
-99.147
-105.577
-112.255
-119.163
-126.282
-133.59
-141.067
-148.688
-156.43
-164.267
-172.172
-180.118
-188.078
-196.022
-203.922
-211.747
-219.468
-227.054
-234.475
-241.7
-248.7
-255.444
-261.905
-268.053
-273.861
-279.305
-284.359
-289
-293.207
-296.96
-300.241
-303.033
-305.321
-307.094
-308.341
-309.054
-309.227
-308.857
-307.942
-306.484
-304.488
-301.959
-298.907
-295.343
-291.281
-286.737
-281.73
-276.281
-270.413
-264.149
-257.517
-250.543
-243.257
-235.689
-227.868
-219.827
-211.597
-203.21
-194.699
-186.096
-177.432
-168.739
-160.048
-151.388
-142.788
-134.276
-125.878
-117.619
-109.523
-101.612
-93.906
-86.424
-79.182
-72.194
-65.472
-59.026
-52.862
-46.985
-41.398
-36.1
-31.089
-26.362
-21.915
-17.742
-13.834
-10.182
-6.776
-3.606
-0.658
2.082
4.629
6.998
9.205
11.265
13.194
15.006
16.716
18.337
19.883
21.367
22.803
24.203
25.579
26.944
28.308
29.678
31.063
32.466
33.892
35.34
36.807
38.291
39.79
41.299
42.817
44.338
45.861
47.382
48.9
50.414
51.916
53.397
54.847
56.253
57.605
58.889
60.094
61.206
62.216
63.121
63.919
64.611
65.193
65.652
65.97
66.134
66.139
65.983
65.667
65.196
64.589
63.879
63.126
62.387
61.707
61.106
60.586
60.148
59.787
59.504
59.304
59.173
59.102
59.09
59.137
59.243
59.382
59.475
59.389
58.986
58.149
56.812
54.943
52.526
49.583
46.158
42.327
38.207
33.88
29.415
24.888
20.383
16.027
12.022
8.617
6.11
4.846
5.05
6.828
10.161
14.84
20.656
27.435
34.901
42.728
50.752
59.074
68.205
79.025
92.205
108
126.49
147.718
171.568
197.296
223.223
246.925
266.07
278.892
283.987
279.929
265.406
240.729
208.104
170.433
130.32
88.025
42.449
-5.115
-50.184
-85.361
-103.477
-102.107
-84.775
-59.659
-34.975
-15.954
-3.9
3.641
8.81
12.224
13.879
12.886
9.358
4.73
0.147
-3.662
-6.399
-8.324
-9.75
-10.837
-11.916
-13.447
-15.659
-18.578
-22.075
-25.833
-29.574
-33.168
-36.486
-39.423
-41.939
-44.002
-45.605
-46.785
-47.561
-47.93
-47.885
-47.412
-46.512
-45.218
-43.588
-41.703
-39.648
-37.483
-35.249
-32.971
-30.664
-28.344
-26.021
-23.7
-21.38
-19.072
-16.796
-14.58
-12.452
-10.43
-8.524
-6.74
-5.08
-3.552
-2.161
-0.914
0.182
1.117
1.884
2.468
2.856
3.042
3.021
2.793
2.36
1.725
0.893
-0.129
-1.332
-2.708
-4.249
-5.946
-7.791
-9.774
-11.884
-14.111
-16.443
-18.867
-21.371
-23.943
-26.567
-29.233
-31.927
-34.638
-37.354
-40.065
-42.76
-45.431
-48.069
-50.665
-53.212
-55.704
-58.134
-60.498
-62.791
-65.013
-67.162
-69.237
-71.24
-73.174
-75.042
-76.847
-78.595
-80.289
-81.935
-83.538
-85.104
-86.64
-88.151
-89.644
-91.125
-92.6
-94.076
-95.559
-97.053
-98.565
-100.098
-101.657
-103.247
-104.87
-106.531
-108.232
-109.976
-111.765
-113.599
-115.48
-117.408
-119.382
-121.401
-123.462
-125.564
-127.703
-129.875
-132.075
-134.299
-136.541
-138.795
-141.054
-143.311
-145.559
-147.792
-150
-152.176
-154.314
-156.404
-158.439
-160.412
-162.314
-164.139
-165.878
-167.523
-169.068
-170.504
-171.823
-173.019
-174.085
-175.012
-175.795
-176.426
-176.9
-177.209
-177.347
-177.31
-177.092
-176.687
-176.092
-175.304
-174.318
-173.132
-171.744
-170.154
-168.358
-166.359
-164.154
-161.746
-159.136
-156.325
-153.316
-150.112
-146.718
-143.137
-139.376
-135.438
-131.331
-127.062
-122.637
-118.065
-113.353
-108.512
-103.551
-98.48
-93.312
-88.056
-82.725
-77.331
-71.888
-66.407
-60.902
-55.385
-49.871
-44.373
-38.904
-33.478
-28.108
-22.808
-17.59
-12.466
-7.447
-2.545
2.231
6.871
11.367
15.71
19.893
23.909
27.751
31.413
34.89
38.178
41.274
44.176
46.883
49.396
51.717
53.847
55.792
57.555
59.142
60.559
61.813
62.914
63.87
64.694
65.399
66
66.512
66.949
67.328
67.666
67.98
68.284
68.596
68.928
69.298
69.725
70.226
70.824
71.538
72.388
73.396
74.582
75.965
77.561
79.385
81.443
83.744
86.293
89.097
92.167
95.508
99.119
103
107.147
111.557
116.231
121.161
126.339
131.756
137.399
143.257
149.338
155.647
162.193
168.99
176.028
183.306
190.833
198.622
206.687
215.008
223.515
232.12
240.738
249.31
257.84
266.295
274.566
282.61
290.409
298.051
305.804
313.739
321.688
329.501
337.001
344.03
350.601
356.341
360.403
362.36
362.112
359.831
356.225
351.798
346.716
341.992
339.3
339.902
344.956
354.992
369.321
387.521
409.615
433.671
457.057
478.262
494.631
505.759
512.745
512.466
502.545
481.151
446.527
403.176
356.488
310.754
270.648
237.389
211.925
195.491
187.881
189.286
198.707
214.149
233.715
254.675
274.52
291.765
305.365
314.989
321.091
324.182
325.06
324.982
324.838
325.061
325.884
327.179
328.653
330.113
331.238
331.582
330.933
329.243
326.56
323.087
319.008
314.446
309.534
304.386
299.062
293.62
288.09
282.459
276.731
270.9
264.963
258.928
252.783
246.502
240.055
233.405
226.514
219.351
211.898
204.16
196.148
187.884
179.389
170.69
161.818
152.812
143.703
134.518
125.285
116.033
106.798
97.62
88.539
79.593
70.818
62.246
53.909
45.834
38.045
30.564
23.411
16.601
10.152
4.083
-1.591
-6.854
-11.693
-16.097
-20.059
-23.57
-26.629
-29.235
-31.389
-33.098
-34.369
-35.21
-35.631
-35.647
-35.269
-34.513
-33.398
-31.945
-30.175
-28.111
-25.777
-23.198
-20.402
-17.422
-14.278
-10.995
-7.597
-4.108
-0.563
2.999
6.558
10.095
13.562
16.914
20.115
23.119
25.921
28.534
30.92
33.029
34.932
36.723
38.326
39.738
40.97
41.789
42.803
44.601
46.336
47.751
47.294
43.105
37.254
31.124
26.771
27.018
29.391
31.795
32.798
30.029
25.21
20.089
15.066
11.213
7.935
4.46
0.956
-2.663
-6.329
-9.867
-13.369
-16.905
-20.435
-23.941
-27.423
-30.868
-34.265
-37.603
-40.862
-44.017
-47.072
-50.032
-52.898
-55.664
-58.324
-60.877
-63.32
-65.666
-67.93
-70.11
-72.203
-74.238
-76.241
-78.235
-80.249
-82.277
-84.294
-86.328
-88.423
-90.499
-92.457
-94.369
-96.236
-98.046
-100.03
-101.581
-102.106
-102.461
-102.904
-105.003
-110.628
-117.705
-124.848
-129.994
-130.309
-128.287
-126.039
-125.006
-127.577
-132.023
-136.588
-140.872
-143.795
-145.954
-148.121
-150.124
-152.042
-153.8
-155.216
-156.372
-157.331
-158.043
-158.48
-158.632
-158.477
-157.991
-157.152
-155.93
-154.292
-152.233
-149.749
-146.831
-143.472
-139.671
-135.424
-130.737
-125.615
-120.066
-114.099
-107.727
-100.965
-93.834
-86.357
-78.561
-70.476
-62.135
-53.576
-44.839
-35.967
-27.005
-18
-9.001
-0.058
8.778
17.455
25.919
34.117
41.996
49.503
56.586
63.194
69.274
74.78
79.666
83.889
87.413
90.2
92.215
93.428
93.812
93.346
92.012
89.795
86.683
82.672
77.759
71.957
65.285
57.767
49.432
40.31
30.43
19.832
8.558
-3.351
-15.852
-28.906
-42.478
-56.523
-70.991
-85.833
-100.986
-116.41
-132.076
-147.945
-163.985
-180.135
-196.297
-212.4
-228.387
-244.193
-259.791
-275.087
-289.891
-304.147
-317.891
-331.152
-344.025
-356.435
-368.067
-378.824
-388.824
-398
-406.198
-413.109
-418.145
-421.18
-422.627
-422.736
-421.624
-419.536
-416.769
-414.039
-412.614
-413.34
-416.385
-421.702
-429.114
-438.408
-449.326
-461.169
-472.53
-481.854
-488.086
-490.734
-489.521
-484.075
-473.945
-458.725
-438.664
-414.873
-388.378
-359.682
-329.357
-298.471
-268.688
-242.279
-221.23
-206.586
-199.29
-200.769
-212.379
-233.916
-263.361
-298.181
-335.658
-375.397
-418.949
-464.721
-509.099
-546.06
-567.262
-568.261
-548.151
-509.668
-459.614
-405.933
-356.784
-317.764
-291.874
-278.338
-272.819
-271.902
-271.89
-271.127
-271.12
-272.041
-274.154
-277.114
-278.538
-277.271
-273.344
-267.067
-259.709
-252.437
-245.512
-239.105
-233.474
-228.666
-224.742
-221.704
-219.23
-216.92
-214.599
-212.186
-209.655
-207.068
-204.421
-201.682
-198.888
-196.117
-193.437
-190.904
-188.542
-186.328
-184.24
-182.267
-180.394
-178.607
-176.884
-175.192
-173.49
-171.753
-169.967
-168.123
-166.216
-164.235
-162.157
-159.964
-157.639
-155.167
-152.538
-149.738
-146.753
-143.572
-140.191
-136.612
-132.838
-128.875
-124.725
-120.39
-115.873
-111.18
-106.316
-101.289
-96.108
-90.781
-85.321
-79.744
-74.066
-68.305
-62.481
-56.613
-50.717
-44.812
-38.917
-33.05
-27.231
-21.479
-15.811
-10.242
-4.798
0.498
5.625
10.558
15.289
19.813
24.108
28.153
31.959
35.534
38.882
42.018
44.917
47.542
49.907
52.044
53.861
55.253
56.285
56.953
57.243
57.389
56.779
54.823
52.387
49.739
48.464
50.459
53.649
56.658
57.431
53.141
46.318
39.113
33
30.409
29.633
28.944
27.963
25.636
22.593
19.641
16.649
13.746
10.885
7.91
4.963
2.16
-0.501
-2.991
-5.306
-7.469
-9.455
-11.223
-12.865
-14.495
-16.034
-17.471
-18.822
-19.852
-21.164
-23.345
-25.543
-27.495
-27.645
-24.132
-19.011
-13.653
-10.099
-11.152
-14.329
-17.526
-19.301
-17.269
-13.134
-8.623
-4.117
-0.67
2.33
5.667
9.19
13
17.042
21.154
25.44
29.98
34.743
39.719
44.913
50.319
55.925
61.723
67.69
73.801
80.058
86.46
92.995
99.657
106.436
113.322
120.306
127.379
134.529
141.743
149.007
156.308
163.63
170.959
178.279
185.574
192.827
200.021
207.139
214.162
221.074
227.856
234.492
240.962
247.252
253.344
259.223
264.874
270.284
275.439
280.328
284.939
289.26
293.282
296.995
300.389
303.458
306.194
308.592
310.647
312.358
313.722
314.741
315.416
315.75
315.748
315.416
314.76
313.788
312.512
310.94
309.087
306.965
304.589
301.975
299.14
296.1
292.871
289.47
285.913
282.217
278.397
274.471
270.456
266.367
262.225
258.047
253.854
249.665
245.498
241.37
237.297
233.296
229.381
225.565
221.855
218.259
214.785
211.44
208.231
205.164
202.241
199.468
196.851
194.398
192.116
190.014
188.09
186.348
184.791
183.425
182.269
181.337
180.633
180.164
179.935
179.944
180.183
180.627
181.226
181.926
182.666
183.393
184.062
184.636
185.086
185.375
185.46
185.307
184.883
184.155
183.098
181.693
179.962
177.999
175.924
173.894
172.146
170.839
170.077
169.894
170.085
170.395
170.7
170.789
170.349
169.338
167.929
166.613
166.536
168.896
173.827
180.794
189.568
199.473
211.896
230.075
253.399
278.971
299.641
303.975
286.932
249.291
196.558
138.443
78.887
17.731
-44.734
-107.036
-160.928
-195.936
-205.974
-188.898
-150.855
-103.368
-56.241
-19.224
2.557
10.999
9.367
3.287
-1.597
-3.915
-3.95
-3.131
-3.237
-4.346
-5.241
-4.207
-0.453
5.753
13.45
21.188
28.275
34.631
40.088
44.534
47.913
50.204
51.688
52.841
53.9
54.935
55.977
56.988
57.978
58.988
59.978
60.868
61.609
62.167
62.534
62.723
62.722
62.495
62
61.208
60.112
58.717
57.036
55.082
52.869
50.417
47.758
44.918
41.92
38.79
35.551
32.229
28.857
25.469
22.104
18.801
15.593
12.508
9.573
6.81
4.242
1.886
-0.243
-2.13
-3.761
-5.122
-6.2
-6.983
-7.465
-7.64
-7.503
-7.056
-6.3
-5.24
-3.883
-2.238
-0.315
1.874
4.318
7
9.907
13.021
16.325
19.798
23.422
27.174
31.033
34.976
38.982
43.028
47.092
51.152
55.188
59.178
63.103
66.944
70.683
74.303
77.787
81.121
84.292
87.285
90.092
92.703
95.109
97.305
99.286
101.048
102.589
103.908
105.006
105.882
106.54
106.983
107.215
107.241
107.068
106.703
106.154
105.43
104.54
103.493
102.3
100.971
99.517
97.946
96.271
94.501
92.646
90.715
88.719
86.665
84.563
82.421
80.245
78.043
75.821
73.584
71.338
69.087
66.837
64.591
62.353
60.128
57.918
55.726
53.555
51.409
49.289
47.198
45.137
43.11
41.118
39.164
37.251
35.38
33.556
31.782
30.06
28.396
26.794
25.259
23.796
22.412
21.113
19.906
18.8
17.803
16.923
16.171
15.555
15.085
14.771
14.623
14.651
14.863
15.27
15.881
16.706
17.752
19.029
20.545
22.306
24.318
26.586
29.116
31.91
34.97
38.298
41.892
45.752
49.877
54.262
58.901
63.79
68.919
74.28
79.862
85.652
91.637
97.801
104.129
110.604
117.208
123.924
130.731
137.611
144.542
151.503
158.471
165.424
172.338
179.189
185.955
192.614
199.143
205.522
211.731
217.749
223.559
229.143
234.483
239.561
244.363
248.875
253.083
256.977
260.547
263.784
266.683
269.241
271.457
273.33
274.858
276.044
276.895
277.418
277.622
277.518
277.111
276.415
275.444
274.214
272.741
271.04
269.125
267.013
264.725
262.285
259.71
257.009
254.181
251.221
248.131
244.925
241.628
238.259
234.842
231.404
227.987
224.64
221.395
218.268
215.249
212.316
209.486
206.788
204.284
202.055
200.149
198.57
197.298
196.287
195.452
194.711
193.921
192.879
191.511
189.866
188.103
186.496
185.205
184.228
183.51
182.985
182.37
181.252
179.112
175.253
169.306
161.349
151.677
140.777
129.403
118.441
108.85
101.829
98.208
98.194
101.751
108.727
118.796
131.6
146.62
162.9
179.603
196.431
213.147
229.081
243.156
253.873
259.658
259.427
252.152
236.29
210.775
176.057
133.317
83.909
27.695
-37.146
-110.257
-186.695
-256.677
-309.833
-340.98
-351.993
-350.44
-343.577
-334.819
-324.474
-311.106
-294.752
-277.182
-260.557
-247.109
-238.34
-235.165
-237.596
-244.432
-253.911
-264.272
-274.355
-283.715
-291.9
-298.2
-302.296
-304.368
-305.102
-305.557
-306.331
-307.515
-309.174
-311.389
-314.163
-317.464
-321.027
-324.368
-327.233
-329.563
-331.349
-332.665
-333.55
-333.991
-334.052
-333.849
-333.461
-332.959
-332.389
-331.768
-331.146
-330.571
-330.076
-329.694
-329.44
-329.315
-329.324
-329.463
-329.724
-330.105
-330.609
-331.235
-331.989
-332.871
-333.874
-334.998
-336.234
-337.575
-339.015
-340.543
-342.153
-343.84
-345.6
-347.432
-349.334
-351.299
-353.32
-355.387
-357.489
-359.614
-361.75
-363.885
-366.005
-368.098
-370.152
-372.158
-374.103
-375.977
-377.768
-379.465
-381.054
-382.526
-383.868
-385.07
-386.121
-387.012
-387.733
-388.278
-388.641
-388.815
-388.796
-388.581
-388.168
-387.555
-386.745
-385.738
-384.538
-383.151
-381.582
-379.841
-377.937
-375.882
-373.687
-371.367
-368.936
-366.411
-363.808
-361.144
-358.438
-355.707
-352.971
-350.249
-347.56
-344.923
-342.356
-339.879
-337.508
-335.261
-333.153
-331.197
-329.408
-327.797
-326.372
-325.142
-324.113
-323.288
-322.669
-322.254
-322.042
-322.025
-322.198
-322.548
-323.063
-323.729
-324.529
-325.442
-326.448
-327.524
-328.644
-329.782
-330.91
-332
-333.022
-333.946
-334.741
-335.378
-335.825
-336.052
-336.031
-335.733
-335.132
-334.202
-332.919
-331.263
-329.213
-326.752
-323.866
-320.544
-316.776
-312.556
-307.88
-302.75
-297.167
-291.138
-284.672
-277.78
-270.477
-262.782
-254.715
-246.297
-237.555
-228.515
-219.206
-209.658
-199.903
-189.972
-179.898
-169.717
-159.46
-149.163
-138.859
-128.581
-118.36
-108.229
-98.215
-88.348
-78.653
-69.154
-59.872
-50.827
-42.037
-33.517
-25.279
-17.333
-9.685
-2.341
4.699
11.436
17.873
24.019
29.881
35.469
40.797
45.878
50.726
55.359
59.792
64.042
68.128
72.069
75.885
79.594
83.217
86.77
90.274
93.745
97.199
100.651
104.113
107.598
111.115
114.675
118.285
121.954
125.687
129.486
133.353
137.288
141.288
145.349
149.462
153.619
157.81
162.026
166.256
170.489
174.714
178.919
183.096
187.236
191.327
195.358
199.318
203.192
206.967
210.628
214.154
217.53
220.738
223.768
226.611
229.261
231.715
233.974
236.039
237.911
239.593
241.083
242.376
243.474
244.388
245.14
245.767
246.304
246.778
247.214
247.631
248.038
248.423
248.752
248.965
249.002
248.826
248.428
247.815
246.989
245.936
244.615
242.984
241.028
238.746
236.14
233.219
229.993
226.562
223.147
219.966
217.158
214.713
212.432
210.13
207.757
205.229
202.401
199.288
196.138
193.609
192.81
194.706
199.854
208.564
220.984
236.944
255.663
275.495
294.025
308.904
318.248
320.616
314.727
299.405
274.472
241.106
201.558
158.568
114.805
72.651
34.757
4.166
-17.12
-28.441
-30.17
-23.606
-10.305
8.185
29.683
51.419
71.375
88.359
101.805
111.883
118.887
123.142
125.487
127.106
128.778
130.872
133.44
136.168
138.773
141.055
142.669
143.188
142.339
140.057
136.45
131.819
126.503
120.712
114.612
108.348
102.012
95.687
89.445
83.299
77.234
71.28
65.47
59.87
54.584
49.635
44.987
40.56
36.212
31.849
27.433
22.922
18.289
13.512
8.569
3.474
-1.727
-7.014
-12.394
-17.892
-23.561
-29.419
-35.448
-41.618
-47.874
-54.177
-60.504
-66.822
-73.097
-79.307
-85.437
-91.487
-97.477
-103.413
-109.289
-115.093
-120.805
-126.413
-131.91
-137.29
-142.547
-147.676
-152.673
-157.536
-162.271
-166.876
-171.346
-175.673
-179.846
-183.855
-187.693
-191.352
-194.825
-198.106
-201.191
-204.076
-206.764
-209.255
-211.548
-213.646
-215.55
-217.263
-218.788
-220.13
-221.296
-222.292
-223.127
-223.811
-224.354
-224.769
-225.069
-225.266
-225.375
-225.41
-225.387
-225.318
-225.22
-225.105
-224.99
-224.889
-224.815
-224.785
-224.81
-224.906
-225.084
-225.356
-225.731
-226.219
-226.825
-227.555
-228.413
-229.401
-230.519
-231.767
-233.14
-234.636
-236.248
-237.967
-239.784
-241.688
-243.666
-245.702
-247.782
-249.889
-252.005
-254.112
-256.19
-258.222
-260.188
-262.067
-263.841
-265.489
-266.994
-268.335
-269.496
-270.458
-271.205
-271.723
-271.998
-272.019
-271.774
-271.255
-270.456
-269.371
-267.998
-266.334
-264.381
-262.141
-259.619
-256.821
-253.757
-250.437
-246.875
-243.083
-239.078
-234.877
-230.497
-225.958
-221.278
-216.477
-211.575
-206.593
-201.553
-196.475
-191.381
-186.291
-181.226
-176.205
-171.247
-166.369
-161.587
-156.916
-152.369
-147.957
-143.691
-139.58
-135.632
-131.852
-128.245
-124.816
-121.564
-118.489
-115.587
-112.852
-110.277
-107.855
-105.574
-103.425
-101.395
-99.473
-97.647
-95.905
-94.234
-92.62
-91.047
-89.501
-87.965
-86.426
-84.867
-83.274
-81.634
-79.936
-78.169
-76.326
-74.4
-72.386
-70.278
-68.074
-65.769
-63.36
-60.843
-58.215
-55.476
-52.626
-49.669
-46.61
-43.458
-40.222
-36.919
-33.564
-30.17
-26.749
-23.312
-19.866
-16.425
-12.997
-9.589
-6.213
-2.881
0.386
3.554
6.597
9.502
12.264
14.893
17.408
19.826
22.164
24.459
26.732
28.997
31.25
33.448
35.552
37.545
39.429
41.244
43.028
44.78
46.494
48.161
49.735
51.174
52.411
53.306
53.756
53.706
53.143
52.144
50.825
49.264
47.516
45.611
43.564
41.432
39.292
37.193
35.235
33.556
32.343
31.883
32.475
34.352
37.62
42.204
47.873
54.317
61.306
68.678
76.226
83.724
91.177
98.883
107.381
117.368
129.22
142.916
158.473
175.772
194.19
212.674
229.691
243.44
252.543
255.99
252.714
242.036
224.114
199.84
170.97
139.727
108.177
78.489
53.152
34.345
23.412
20.85
26.206
38.419
56.26
78.045
101.542
124.654
145.867
164.269
179.572
191.926
201.63
209.328
216.076
222.765
229.897
237.677
246.014
254.707
263.609
272.484
280.951
288.801
296.007
302.653
308.958
315.089
321.1
327.039
332.955
338.851
344.724
350.559
356.294
361.886
367.317
372.559
377.598
382.394
386.874
390.952
394.535
397.556
399.974
401.764
402.914
403.421
403.284
402.513
401.127
399.139
396.556
393.38
389.614
385.267
380.364
374.938
369.026
362.666
355.894
348.751
341.276
333.509
325.491
317.259
308.846
300.293
291.645
282.949
274.251
265.601
257.044
248.628
240.4
232.405
224.685
217.28
210.224
203.551
197.295
191.484
186.145
181.302
176.975
173.183
169.941
167.261
165.149
163.609
162.64
162.234
162.384
163.077
164.296
166.022
168.23
170.896
173.993
177.489
181.353
185.548
190.037
194.783
199.745
204.883
210.152
215.51
220.916
226.327
231.699
236.989
242.156
247.161
251.973
256.558
260.884
264.924
268.65
272.041
275.08
277.747
280.025
281.895
283.339
284.356
284.958
285.156
284.967
284.392
283.42
282.056
280.313
278.195
275.708
272.845
269.587
265.95
261.982
257.739
253.271
248.593
243.676
238.497
233.056
227.4
221.617
215.76
209.835
203.853
197.868
192.021
186.431
181.048
175.645
169.964
163.884
157.573
151.294
145.127
139.199
133.739
129.14
126.068
124.925
125.452
127.122
129.445
131.75
133.539
134.312
133.067
129.133
122.576
113.71
103.21
92.151
81.215
70.968
62.439
56.339
52.945
52.477
54.5
58.035
62.503
67.462
72.266
76.541
79.973
82.127
83.15
83.657
83.987
84.379
85.044
85.981
87.298
89.265
91.86
94.826
98.025
101.359
104.81
108.5
112.455
116.599
120.917
125.429
130.132
135.029
140.077
145.165
150.21
155.149
159.929
164.54
168.967
173.175
177.136
180.819
184.217
187.361
190.288
193.021
195.596
198.051
200.447
202.896
205.489
208.285
211.324
214.584
218.026
221.622
225.323
229.051
232.696
236.09
239.053
241.458
243.179
244.093
244.063
242.895
240.44
236.624
231.396
224.758
216.734
207.336
196.618
184.718
171.808
158.105
143.842
129.171
114.228
99.17
84.138
69.293
54.747
40.517
26.613
13.069
-0.088
-12.807
-25.07
-36.966
-48.604
-60.092
-71.547
-82.996
-94.39
-105.745
-117.081
-128.282
-139.165
-149.356
-158.346
-165.875
-171.907
-176.399
-179.305
-180.584
-180.137
-178.288
-175.845
-173.243
-170.598
-167.763
-164.192
-159.578
-154.019
-147.056
-137.494
-124.36
-106.786
-84.489
-58.335
-29.003
3.364
37.95
72.979
106.294
135.161
157.018
170.539
174.387
166.529
146.366
115.292
75.09
28.621
-22.794
-80.938
-144.975
-211.052
-271.959
-317.401
-341.205
-342.244
-324.466
-295.925
-264.435
-237.212
-218.583
-209.894
-209.638
-213.233
-217.114
-218.537
-216.879
-214.249
-211.547
-209.384
-207.877
-205.826
-202.967
-199.612
-195.988
-192.72
-190.266
-188.627
-187.768
-187.606
-187.886
-188.388
-188.975
-189.48
-189.784
-189.861
-189.651
-189.085
-188.192
-187.013
-185.464
-183.466
-181.091
-178.339
-175.22
-171.993
-168.11
-163.05
-157.705
-152.387
-148.666
-148.394
-149.573
-150.867
-150.277
-145.05
-137.62
-130.041
-123.725
-121.01
-120.222
-119.663
-118.948
-117.034
-114.508
-112.131
-109.745
-107.444
-105.17
-102.765
-100.332
-97.953
-95.608
-93.296
-91.034
-88.823
-86.662
-84.552
-82.483
-80.445
-78.453
-76.521
-74.654
-72.863
-71.159
-69.552
-68.057
-66.686
-65.449
-64.358
-63.421
-62.651
-62.056
-61.646
-61.431
-61.418
-61.615
-62.029
-62.665
-63.528
-64.621
-65.944
-67.499
-69.282
-71.29
-73.519
-75.96
-78.605
-81.444
-84.464
-87.654
-90.996
-94.476
-98.075
-101.774
-105.553
-109.391
-113.266
-117.156
-121.039
-124.891
-128.69
-132.414
-136.04
-139.547
-142.914
-146.119
-149.144
-151.97
-154.578
-156.953
-159.08
-160.945
-162.537
-163.846
-164.865
-165.586
-166.006
-166.123
-165.936
-165.448
-164.661
-163.583
-162.221
-160.585
-158.687
-156.538
-154.155
-151.552
-148.747
-145.756
-142.598
-139.292
-135.858
-132.314
-128.68
-124.977
-121.225
-117.442
-113.649
-109.864
-106.104
-102.388
-98.731
-95.148
-91.653
-88.26
-84.978
-81.819
-78.79
-75.9
-73.153
-70.555
-68.106
-65.809
-63.66
-61.659
-59.798
-58.074
-56.478
-55.001
-53.635
-52.369
-51.193
-50.095
-49.065
-48.086
-47.143
-46.219
-45.3
-44.373
-43.423
-42.431
-41.385
-40.282
-39.127
-37.924
-36.667
-35.333
-33.909
-32.391
-30.763
-28.975
-26.959
-24.661
-22.071
-19.223
-16.145
-12.829
-9.342
-5.911
-2.701
0.265
3.04
5.837
8.139
8.755
7.474
5.035
4.426
10.091
23.112
41.571
59.881
69.956
69.079
58.744
43.88
33.127
30.082
34.725
45.496
56.617
65.116
70.321
71.321
70.419
69.184
67.815
67.191
66.806
66.08
65.198
64.051
62.705
61.328
59.82
58.088
56.122
53.901
51.422
48.716
45.816
42.757
39.597
36.406
33.234
30.141
27.183
24.4
21.817
19.436
17.254
15.272
13.514
12.031
10.865
10.04
9.568
9.451
9.666
10.163
10.861
11.64
12.401
13.077
13.648
14.146
14.609
15.095
15.636
16.228
16.894
17.655
18.521
19.525
20.754
22.341
24.502
27.518
31.607
36.986
43.87
52.34
62.359
73.766
86.291
99.674
113.745
128.275
142.9
157.441
172.025
186.962
202.753
219.972
238.92
259.718
282.813
307.702
332.415
355.697
376.218
393.111
407.777
418.374
419.638
407.069
375.879
326.533
266.603
203.222
142.135
87.18
37.558
-6.81
-42.326
-67.218
-79.426
-76.739
-62.049
-36.399
-0.075
42.502
87.414
127.395
153.559
162.646
156.166
141.129
126.262
116.411
112.222
110.577
108.609
106.116
104.197
104.429
107.196
111.321
115.477
118.926
121.459
123.039
123.688
123.442
122.412
121.008
119.718
118.746
118.137
117.887
117.913
118.198
118.76
119.525
120.387
121.286
122.165
123
123.786
124.474
125.021
125.396
125.571
125.534
125.29
124.837
124.178
123.324
122.273
121.02
119.565
117.903
116.031
113.951
111.664
109.176
106.496
103.628
100.578
97.348
93.939
90.349
86.574
82.609
78.452
74.104
69.567
64.844
59.937
54.848
49.582
44.141
38.529
32.748
26.798
20.682
14.403
7.966
1.375
-5.362
-12.24
-19.25
-26.384
-33.633
-40.986
-48.434
-55.966
-63.572
-71.242
-78.962
-86.721
-94.506
-102.305
-110.102
-117.885
-125.64
-133.351
-141.005
-148.586
-156.082
-163.477
-170.756
-177.905
-184.91
-191.756
-198.429
-204.915
-211.199
-217.27
-223.114
-228.722
-234.081
-239.184
-244.021
-248.585
-252.871
-256.873
-260.586
-264.007
