Name
Date of Birth,"Dec 28, 2003"
Recorded Date,2024-09-19 09:53:09 -0500
Classification,Poor Recording
Symptoms,
Software Version,1.90
Device,"Watch4,4"
Sample Rate,512.711 hertz


Lead,Lead I
Unit,µV

52.494
84.716
99.736
71.353
-15.564
-161.938
-341.587
-519.08
-669.459
-776.119
-843.729
-886.653
-911.57
-924.637
-923.944
-901.48
-856.213
-786.428
-689.295
-569.417
-433.373
-291.179
-162.801
-66.239
-9.696
3.467
-17.541
-52.452
-83.048
-89.446
-58.533
9.04
104.627
211.313
316.462
411.482
490.821
556.541
604.399
634.351
654.375
667.784
682.237
700.619
715.91
725.183
727.223
723.935
722.989
732.47
757.474
799.391
857.186
919.132
969.635
1002.49
1017.735
1037.282
1095.423
1202.748
1337.349
1432.432
1393.964
1156.848
721.307
164.163
-386.247
-804.431
-1018.93
-1027.469
-875.869
-630.356
-348.083
-68.034
175.662
355.069
457.592
488.354
479.918
478.256
509.565
577.443
659.817
721.347
748.291
744.541
719.744
683.924
626.677
525.919
377.552
196.267
21.861
-90.541
-110.09
-29.679
127.119
308.89
472.33
575.79
595.158
537.459
415.331
262.369
118.196
-0.439
-82.168
-135.85
-186.19
-243.025
-312.403
-391.173
-464.169
-524.278
-568.956
-598.819
-620.398
-638.344
-654.236
-669.237
-683.732
-698.383
-714.613
-732.914
-752.635
-772.557
-791.886
-810.5
-828.389
-845.459
-861.227
-875.299
-887.831
-899.299
-910.029
-919.948
-928.704
-935.881
-941.23
-944.643
-945.917
-944.704
-940.587
-933.108
-921.963
-907.028
-888.293
-865.878
-839.976
-810.912
-779.15
-745.321
-710.25
-674.788
-639.755
-605.908
-573.935
-544.468
-518.226
-496.059
-478.684
-466.809
-461.121
-461.933
-469.405
-483.491
-503.669
-529.123
-559.036
-592.481
-627.908
-663.943
-699.836
-734.713
-770.293
-810.505
-855.46
-904.271
-951.44
-983.938
-999.642
-1003.601
-1008.114
-1038.331
-1097.312
-1168.245
-1222.338
-1211.424
-1112.601
-929.096
-674.67
-388.853
-103.936
159.442
375.121
534.918
641.838
701.654
734.479
756.247
769.755
778.091
781.746
784.362
801.687
844.76
915.024
1006.531
1099.543
1174.171
1220.93
1236.043
1227.011
1207.885
1186.562
1169.06
1156.176
1141.607
1122.223
1096.158
1063.139
1026.701
988.865
950.192
910.797
870.066
828.019
785.417
743.067
701.541
661.213
622.356
585.349
550.565
518.222
488.379
460.876
435.466
411.972
390.281
370.301
351.878
334.763
318.619
303.094
287.934
272.936
257.86
242.421
226.355
209.502
191.825
173.417
154.424
134.972
115.18
95.201
75.249
55.585
36.516
18.354
1.336
-14.335
-28.441
-40.768
-51.128
-59.39
-65.496
-69.456
-71.282
-70.991
-68.623
-64.252
-57.973
-49.894
-40.14
-28.838
-16.115
-2.124
13.002
29.156
46.225
64.109
82.714
101.936
121.712
142.017
162.827
184.134
205.883
227.971
250.309
272.802
295.4
318.114
340.907
363.691
386.428
409.094
431.691
454.277
476.772
498.954
520.635
541.626
561.809
581.168
599.646
617.168
633.646
648.943
662.983
675.761
687.188
697.123
705.418
711.862
716.443
719.367
720.789
720.858
719.679
717.261
713.68
709.072
703.536
697.169
690.041
682.171
673.674
664.746
655.581
646.415
637.341
628.281
619.212
610.133
601.06
592.068
583.184
574.381
565.693
557.2
548.984
541.145
533.725
526.702
520.061
513.781
507.89
502.485
497.632
493.373
489.75
486.784
484.51
482.983
482.213
482.164
482.805
484.095
486.008
488.537
491.662
495.351
499.563
504.244
509.342
514.806
520.578
526.59
532.773
539.05
545.35
551.617
557.786
563.791
569.563
575.031
580.125
584.781
588.93
592.503
595.43
597.647
599.091
599.706
599.437
598.231
596.041
592.822
588.536
583.148
576.627
568.947
560.087
550.033
538.775
526.308
512.635
497.764
481.708
464.489
446.13
426.664
406.128
384.562
362.012
338.53
314.171
288.994
263.061
236.438
209.194
181.403
153.139
124.479
95.502
66.286
36.911
7.459
-21.99
-51.356
-80.561
-109.524
-138.171
-166.425
-194.214
-221.467
-248.12
-274.108
-299.374
-323.862
-347.523
-370.312
-392.189
-413.119
-433.07
-452.019
-469.946
-486.836
-502.679
-517.472
-531.216
-543.917
-555.586
-566.241
-575.903
-584.597
-592.354
-599.209
-605.202
-610.377
-614.78
-618.465
-621.485
-623.9
-625.772
-627.164
-628.144
-628.78
-629.141
-629.3
-629.326
-629.292
-629.269
-629.328
-629.539
-629.971
-630.691
-631.765
-633.254
-635.22
-637.718
-640.802
-644.52
-648.918
-654.036
-659.909
-666.567
-674.036
-682.336
-691.479
-701.474
-712.323
-724.02
-736.554
-749.906
-764.051
-778.956
-794.583
-810.887
-827.816
-845.313
-863.314
-881.751
-900.548
-919.628
-938.907
-958.297
-977.706
-997.039
-1016.2
-1035.089
-1053.607
-1071.653
-1089.128
-1105.932
-1121.969
-1137.146
-1151.369
-1164.552
-1176.607
-1187.454
-1197.015
-1205.217
-1211.995
-1217.287
-1221.04
-1223.207
-1223.747
-1222.628
-1219.829
-1215.333
-1209.132
-1201.227
-1191.626
-1180.345
-1167.41
-1152.851
-1136.711
-1119.035
-1099.88
-1079.308
-1057.388
-1034.192
-1009.796
-984.282
-957.73
-930.224
-901.846
-872.677
-842.8
-812.301
-781.262
-749.77
-717.913
-685.777
-653.448
-621.017
-588.568
-556.183
-523.939
-491.9
-460.126
-428.674
-397.59
-366.918
-336.696
-306.948
-277.701
-248.989
-220.837
-193.265
-166.28
-139.864
-114.017
-88.753
-64.089
-40.053
-16.691
5.952
27.803
48.744
68.676
87.498
105.129
121.555
136.766
150.756
163.518
175.045
185.372
194.58
202.777
210.033
216.435
222.125
227.292
232.211
237.119
242.174
247.443
253.002
258.887
264.863
270.715
276.135
280.671
284.197
286.63
287.538
286.536
283.697
278.874
272.056
263.446
252.158
237.289
218.8
196.555
170.158
139.575
104.316
63.846
19.437
-27.528
-76.452
-126.496
-176.985
-227.488
-276.745
-323.51
-367.986
-410.405
-450.74
-489.244
-525.74
-559.989
-592.391
-623.374
-652.883
-680.982
-707.681
-732.85
-756.679
-779.366
-800.965
-821.549
-841.182
-859.862
-877.625
-894.52
-910.518
-925.593
-939.671
-952.648
-964.442
-974.961
-984.155
-992.015
-998.534
-1003.724
-1007.617
-1010.255
-1011.716
-1012.106
-1011.51
-1010.011
-1007.691
-1004.627
-1000.918
-996.673
-991.988
-986.957
-981.671
-976.207
-970.65
-965.076
-959.548
-954.125
-948.861
-943.8
-938.991
-934.485
-930.329
-926.57
-923.251
-920.411
-918.086
-916.31
-915.111
-914.509
-914.518
-915.149
-916.408
-918.295
-920.812
-923.951
-927.706
-932.066
-937.018
-942.547
-948.635
-955.263
-962.409
-970.051
-978.165
-986.726
-995.708
-1005.085
-1014.83
-1024.915
-1035.312
-1045.989
-1056.915
-1068.056
-1079.376
-1090.839
-1102.408
-1114.043
-1125.706
-1137.358
-1148.958
-1160.469
-1171.854
-1183.074
-1194.094
-1204.876
-1215.385
-1225.586
-1235.445
-1244.927
-1253.998
-1262.626
-1270.777
-1278.421
-1285.525
-1292.059
-1297.992
-1303.296
-1307.939
-1311.895
-1315.134
-1317.629
-1319.357
-1320.291
-1320.412
-1319.699
-1318.135
-1315.707
-1312.401
-1308.208
-1303.123
-1297.139
-1290.257
-1282.476
-1273.8
-1264.236
-1253.791
-1242.478
-1230.312
-1217.309
-1203.491
-1188.881
-1173.505
-1157.393
-1140.578
-1123.093
-1104.979
-1086.276
-1067.029
-1047.286
-1027.1
-1006.525
-985.617
-964.439
-943.051
-921.52
-899.91
-878.289
-856.726
-835.289
-814.047
-793.069
-772.424
-752.181
-732.406
-713.168
-694.532
-676.562
-659.319
-642.863
-627.25
-612.533
-598.763
-585.984
-574.241
-563.572
-554.011
-545.588
-538.329
-532.255
-527.38
-523.714
-521.259
-520.012
-519.965
-521.103
-523.404
-526.841
-531.384
-536.993
-543.628
-551.242
-559.783
-569.195
-579.416
-590.38
-602.018
-614.257
-627.016
-640.216
-653.772
-667.602
-681.62
-695.739
-709.872
-723.933
-737.832
-751.483
-764.798
-777.691
-790.073
-801.858
-812.963
-823.306
-832.813
-841.409
-849.025
-855.595
-861.059
-865.361
-868.451
-870.28
-870.805
-869.984
-867.787
-864.186
-859.159
-852.692
-844.776
-835.413
-824.614
-812.394
-798.772
-783.77
-767.414
-749.733
-730.759
-710.526
-689.064
-666.412
-642.618
-617.741
-591.848
-565.011
-537.307
-508.816
-479.624
-449.819
-419.489
-388.712
-357.551
-326.074
-294.355
-262.48
-230.556
-198.669
-166.878
-135.237
-103.797
-72.601
-41.677
-11.012
19.462
49.808
80.051
110.171
140.103
169.8
199.222
228.337
257.108
285.438
313.202
340.295
366.656
392.217
416.88
440.471
462.702
483.326
502.219
519.346
534.738
548.414
560.381
570.69
579.519
587.183
594.011
600.306
606.291
612.203
618.369
625.182
633.146
642.688
654.044
667.361
682.759
700.377
720.362
742.795
767.484
794.048
822.114
851.282
881.217
911.533
941.683
971.102
999.211
1025.524
1049.738
1071.6
1090.804
1107.023
1119.922
1129.193
1134.818
1136.946
1135.699
1131.292
1123.944
1113.951
1101.803
1087.966
1072.818
1056.656
1039.661
1021.996
1003.918
985.697
967.602
949.934
932.84
916.381
900.661
885.686
871.417
857.76
844.478
831.368
818.344
805.376
792.489
779.735
767.11
754.614
742.277
730.084
718.049
706.201
694.541
683.12
672.028
661.379
651.343
642.074
633.66
626.162
619.616
614.031
609.422
605.785
603.081
601.291
600.4
600.395
601.267
602.994
605.529
608.818
612.796
617.387
622.526
628.148
634.187
640.583
647.282
654.231
661.388
668.709
676.141
683.633
691.13
698.577
705.925
713.126
720.132
726.902
733.402
739.603
745.481
751.016
756.19
760.99
765.408
769.44
773.084
776.343
779.222
781.732
783.888
785.711
787.22
788.442
789.402
790.132
790.664
791.031
791.268
791.411
791.498
791.567
791.66
791.816
792.076
792.481
793.07
793.883
794.955
796.32
798.008
800.045
802.457
805.263
808.485
812.137
816.23
820.774
825.776
831.236
837.154
843.524
850.336
857.577
865.232
873.283
881.71
890.488
899.59
908.985
918.642
928.524
938.59
948.796
959.093
969.431
979.757
990.016
1000.147
1010.093
1019.799
1029.211
1038.279
1046.952
1055.177
1062.904
1070.088
1076.679
1082.627
1087.875
1092.362
1096.033
1098.843
1100.749
1101.713
1101.7
1100.674
1098.611
1095.503
1091.331
1086.08
1079.717
1072.188
1063.478
1053.609
1042.619
1030.581
1017.562
1003.611
988.814
973.28
957.087
940.289
922.89
904.824
886.083
866.704
846.76
826.39
805.673
784.618
763.235
741.513
719.438
697.024
674.21
650.851
626.926
602.504
577.778
553.098
528.714
504.777
481.41
458.66
436.628
415.49
395.379
376.401
358.694
342.38
327.682
314.946
304.332
295.841
289.325
284.423
280.877
278.535
277.233
276.843
277.212
278.13
279.459
281.123
282.975
284.847
286.47
287.456
287.566
286.695
284.838
282.138
278.672
274.433
269.446
263.739
257.325
250.229
242.414
233.773
224.265
213.894
202.714
190.857
178.393
165.327
151.645
137.284
122.212
106.441
89.968
72.787
54.92
36.412
17.35
-2.133
-21.923
-41.924
-62.045
-82.211
-102.328
-122.285
-141.972
-161.273
-180.074
-198.267
-215.735
-232.359
-248.033
-262.661
-276.161
-288.467
-299.514
-309.237
-317.58
-324.496
-329.943
-333.886
-336.296
-337.148
-336.429
-334.136
-330.275
-324.862
-317.924
-309.493
-299.61
-288.326
-275.701
-261.799
-246.693
-230.46
-213.184
-194.955
-175.865
-156.013
-135.499
-114.425
-92.898
-71.024
-48.911
-26.665
-4.393
17.801
39.813
61.543
82.892
103.766
124.075
143.73
162.646
180.742
197.942
214.177
229.381
243.494
256.463
268.24
278.786
288.067
296.054
302.728
308.073
312.081
314.749
316.082
316.089
314.785
312.192
308.335
303.245
296.959
289.516
280.96
271.339
260.703
249.107
236.607
223.263
209.137
194.291
178.792
162.709
146.109
129.064
111.646
93.925
75.975
57.867
39.673
21.462
3.305
-14.731
-32.58
-50.178
-67.464
-84.379
-100.865
-116.87
-132.342
-147.233
-161.5
-175.101
-187.997
-200.156
-211.545
-222.136
-231.906
-240.834
-248.903
-256.098
-262.411
-267.836
-272.371
-276.019
-278.787
-280.684
-281.725
-281.929
-281.316
-279.914
-277.748
-274.851
-271.257
-267
-262.121
-256.659
-250.656
-244.155
-237.202
-229.843
-222.124
-214.093
-205.797
-197.284
-188.603
-179.801
-170.926
-162.025
-153.146
-144.334
-135.633
-127.086
-118.735
-110.619
-102.774
-95.233
-88.028
-81.186
-74.731
-68.686
-63.067
-57.888
-53.162
-48.894
-45.091
-41.751
-38.874
-36.453
-34.479
-32.942
-31.825
-31.111
-30.78
-30.809
-31.172
-31.843
-32.789
-33.98
-35.381
-36.956
-38.668
-40.477
-42.344
-44.229
-46.092
-47.893
-49.593
-51.155
-52.542
-53.721
-54.659
-55.327
-55.699
-55.751
-55.464
-54.821
-53.81
-52.423
-50.654
-48.506
-45.982
-43.092
-39.85
-36.275
-32.39
-28.224
-23.811
-19.189
-14.4
-9.493
-4.52
0.462
5.392
10.206
14.833
19.204
23.243
26.874
30.021
32.603
34.543
35.761
36.179
35.72
34.31
31.877
28.351
23.666
17.763
10.584
2.078
-7.8
-19.089
-31.822
-46.022
-61.709
-78.892
-97.573
-117.746
-139.396
-162.499
-187.022
-212.925
-240.155
-268.655
-298.355
-329.18
-361.045
-393.858
-427.519
-461.922
-496.956
-532.503
-568.439
-604.639
-640.972
-677.305
-713.504
-749.434
-784.958
-819.941
-854.25
-887.752
-920.32
-951.828
-982.158
-1011.194
-1038.829
-1064.959
-1089.49
-1112.336
-1133.419
-1152.67
-1170.028
-1185.445
-1198.88
-1210.305
-1219.7
-1227.058
-1232.381
-1235.682
-1236.986
-1236.325
-1233.743
-1229.295
-1223.041
-1215.053
-1205.411
-1194.201
-1181.516
-1167.457
-1152.128
-1135.639
-1118.105
-1099.642
-1080.369
-1060.408
-1039.878
-1018.902
-997.6
-976.089
-954.487
-932.905
-911.452
-890.233
-869.347
-848.889
-828.944
-809.595
-790.913
-772.966
-755.809
-739.494
-724.061
-709.543
-695.965
-683.343
-671.685
-660.99
-651.251
-642.452
-634.569
-627.572
-621.422
-616.077
-611.488
-607.6
-604.353
-601.686
-599.533
-597.827
-596.498
-595.475
-594.688
-594.063
-593.531
-593.021
-592.465
-591.795
-590.944
-589.854
-588.466
-586.728
-584.592
-582.014
-578.955
-575.383
-571.27
-566.594
-561.339
-555.491
-549.045
-542.001
-534.364
-526.148
-517.367
-508.042
-498.199
-487.868
-477.085
-465.887
-454.311
-442.397
-430.187
-417.729
-405.066
-392.24
-379.291
-366.261
-353.196
-340.15
-327.171
-314.307
-301.599
-289.092
-276.828
-264.844
-253.167
-241.81
-230.778
-220.077
-209.717
-199.71
-190.071
-180.808
-171.92
-163.398
-155.238
-147.424
-139.927
-132.698
-125.675
-118.82
-112.135
-105.649
-99.39
-93.38
-87.633
-82.174
-77.027
-72.174
-67.576
-63.169
-58.913
-54.829
-50.942
-47.274
-43.827
-40.567
-37.44
-34.422
-31.433
-28.274
-24.848
-21.217
-17.665
-14.62
-12.289
-10.503
-8.994
-7.743
-6.599
-5.021
-1.931
3.945
13.007
24.406
36.706
48.923
60.271
69.688
75.466
75.553
69.069
56.986
41.339
23.677
4.915
-14.224
-32.676
-48.797
-61.561
-71.319
-79.423
-87.001
-94.554
-102.136
-109.726
-117.795
-126.856
-136.956
-147.654
-158.448
-169.08
-179.538
-189.996
-200.483
-210.889
-221.128
-231.183
-241.11
-250.97
-260.8
-270.575
-280.225
-289.666
-298.792
-307.533
-315.837
-323.642
-330.877
-337.453
-343.301
-348.4
-352.763
-356.404
-359.315
-361.471
-362.839
-363.397
-363.143
-362.076
-360.193
-357.483
-353.935
-349.55
-344.341
-338.325
-331.514
-323.909
-315.507
-306.309
-296.323
-285.562
-274.042
-261.775
-248.777
-235.073
-220.694
-205.673
-190.043
-173.839
-157.097
-139.854
-122.152
-104.036
-85.55
-66.743
-47.663
-28.366
-8.905
10.66
30.27
49.865
69.383
88.761
107.934
126.839
145.412
163.588
181.304
198.496
215.1
231.055
246.3
260.778
274.431
287.205
299.049
309.916
319.762
328.549
336.24
342.802
348.208
352.433
355.459
357.272
357.861
357.222
355.355
352.267
347.968
342.475
335.809
327.995
319.063
309.046
297.983
285.916
272.889
258.952
244.156
228.554
212.203
195.163
177.491
159.249
140.497
121.298
101.712
81.799
61.62
41.234
20.697
0.066
-20.605
-41.263
-61.86
-82.347
-102.681
-122.819
-142.723
-162.357
-181.69
-200.69
-219.332
-237.592
-255.449
-272.885
-289.885
-306.434
-322.523
-338.144
-353.288
-367.953
-382.133
-395.826
-409.03
-421.743
-433.964
-445.69
-456.919
-467.649
-477.875
-487.594
-496.8
-505.486
-513.646
-521.272
-528.354
-534.88
-540.841
-546.223
-551.012
-555.195
-558.757
-561.681
-563.952
-565.554
-566.47
-566.684
-566.179
-564.938
-562.947
-560.191
-556.654
-552.326
-547.194
-541.25
-534.488
-526.903
-518.495
-509.265
-499.221
-488.37
-476.726
-464.305
-451.126
-437.214
-422.595
-407.3
-391.362
-374.818
-357.707
-340.071
-321.956
-303.406
-284.471
-265.201
-245.648
-225.864
-205.903
-185.821
-165.673
-145.514
-125.402
-105.392
-85.54
-65.902
-46.531
-27.479
-8.797
9.466
27.266
44.56
61.308
77.475
93.028
107.938
122.181
135.735
148.583
160.712
172.111
182.774
192.698
201.882
210.329
218.045
225.037
231.316
236.895
241.787
246.011
249.585
252.53
254.868
256.624
257.823
258.493
258.662
258.359
257.614
256.456
254.917
253.027
250.814
248.308
245.538
242.53
239.31
235.904
232.334
228.622
224.79
220.857
216.841
212.758
208.627
204.461
200.276
196.086
191.905
187.745
183.618
179.537
175.513
171.556
167.677
163.884
160.186
156.591
153.106
149.738
146.491
143.373
140.386
137.536
134.826
132.261
129.844
127.58
125.471
123.524
121.742
120.132
118.696
117.443
116.375
115.5
114.822
114.347
114.079
114.023
114.183
114.564
115.169
116.001
117.063
118.358
119.889
121.657
123.666
125.918
128.416
131.163
134.163
137.419
140.935
144.716
148.767
153.093
157.698
162.587
167.764
173.235
179.003
185.07
191.442
198.121
205.109
212.408
220.022
227.951
236.196
244.76
253.642
262.843
272.363
282.201
292.357
302.829
313.616
324.714
336.122
347.835
359.846
372.151
384.739
397.603
410.731
424.111
437.729
451.572
465.624
479.868
494.286
508.862
523.577
538.41
553.343
568.355
583.425
598.533
613.657
628.777
643.869
658.913
673.887
688.768
703.534
718.163
732.632
746.919
760.999
774.851
788.451
801.778
814.81
827.525
839.903
851.924
863.569
874.82
885.659
896.069
906.032
915.533
924.555
933.082
941.099
948.589
955.539
961.932
967.753
972.986
977.618
981.633
985.015
987.752
989.827
991.229
991.944
991.961
991.269
989.858
987.719
984.847
981.234
976.876
971.771
965.916
959.311
951.957
943.856
935.014
925.435
915.129
904.106
892.376
879.956
866.861
853.11
838.725
823.73
808.151
792.017
775.359
758.212
740.609
722.59
704.193
685.461
666.434
647.158
627.676
608.034
588.276
568.448
548.596
528.765
509
489.343
469.839
450.529
431.455
412.656
394.17
376.034
358.283
340.95
324.067
307.661
291.76
276.387
261.565
247.312
233.644
220.574
208.115
196.274
185.057
174.468
164.509
155.179
146.476
138.397
130.935
124.084
117.837
112.184
107.116
102.622
98.691
95.314
92.479
90.174
88.388
87.11
86.327
86.029
86.204
86.84
87.926
89.451
91.402
93.771
96.546
99.717
103.274
107.208
111.509
116.168
121.174
126.517
132.186
138.169
144.454
151.029
157.88
164.993
172.354
179.945
187.752
195.756
203.939
212.281
220.76
229.354
238.04
246.795
255.595
264.413
273.226
282.009
290.736
299.383
307.924
316.336
324.591
332.667
340.54
348.187
355.586
362.718
369.564
376.109
382.34
388.245
393.815
399.042
403.923
408.456
412.639
416.475
419.966
423.116
425.935
428.433
430.623
432.522
434.145
435.512
436.641
437.556
438.277
438.828
439.228
439.501
439.668
439.753
439.779
439.768
439.739
439.712
439.705
439.733
439.808
439.937
440.121
440.36
440.653
440.991
441.361
441.745
442.124
442.481
442.797
443.047
443.202
443.23
443.097
442.77
442.209
441.363
440.176
438.587
436.541
433.986
430.872
427.145
422.752
417.637
411.756
405.076
397.556
389.145
379.773
369.371
357.902
345.369
331.801
317.216
301.631
285.068
267.576
249.231
230.082
210.139
189.359
167.694
145.15
121.783
97.705
73.029
47.818
22.084
-4.171
-30.902
-58.056
-85.601
-113.57
-142.032
-170.954
-200.162
-229.352
-258.218
-286.545
-314.189
-341.062
-367.051
-391.989
-415.679
-437.95
-458.688
-477.765
-495
-510.113
-522.797
-532.897
-540.459
-545.701
-548.831
-549.968
-549.176
-546.498
-542.036
-535.929
-528.3
-519.225
-508.749
-496.967
-484.055
-470.29
-455.975
-441.291
-426.272
-410.84
-394.943
-378.602
-361.868
-344.793
-327.389
-309.668
-291.697
-273.603
-255.519
-237.536
-219.688
-201.95
-184.296
-166.756
-149.415
-132.398
-115.803
-99.699
-84.143
-69.197
-54.932
-41.4
-28.606
-16.514
-5.084
5.709
15.875
25.413
34.337
42.674
50.466
57.757
64.589
71.005
77.053
82.79
88.274
93.556
98.674
103.659
108.541
113.354
118.13
122.904
127.7
132.543
137.458
142.471
147.601
152.865
158.271
163.823
169.521
175.364
181.344
187.453
193.675
199.996
206.396
212.857
219.356
225.87
232.373
238.84
245.245
251.562
257.767
263.834
269.739
275.461
280.98
286.279
291.34
296.149
300.693
304.961
308.946
312.643
316.044
319.149
321.957
324.471
326.696
328.641
330.312
331.721
332.88
333.803
334.51
335.016
335.339
335.496
335.504
335.383
335.15
334.819
334.403
333.913
333.355
332.741
332.077
331.371
330.625
329.833
328.981
328.061
327.06
325.962
324.75
323.401
321.887
320.191
318.288
316.16
313.787
311.13
308.156
304.82
301.074
296.907
292.3
287.242
281.732
275.714
269.126
261.952
254.157
245.721
236.669
226.882
216.228
204.867
192.896
180.447
167.733
154.509
140.437
125.644
110.209
93.754
76.103
56.789
35.21
12.012
-12.056
-36.962
-62.481
-88.121
-113.676
-138.313
-161.074
-182.687
-203.909
-224.835
-245.831
-267.082
-288.525
-310.812
-334.638
-359.366
-384.4
-409.49
-434.163
-458.371
-482.195
-505.219
-527.06
-547.907
-567.897
-587.115
-605.746
-623.67
-640.748
-657.035
-672.553
-687.256
-701.129
-714.123
-726.179
-737.332
-747.618
-757.046
-765.644
-773.409
-780.338
-786.448
-791.752
-796.269
-800.021
-803.029
-805.311
-806.892
-807.793
-808.042
-807.665
-806.687
-805.134
-803.031
-800.402
-797.279
-793.694
-789.678
-785.257
-780.457
-775.299
-769.809
-764.013
-757.935
-751.597
-745.019
-738.22
-731.218
-724.034
-716.685
-709.184
-701.543
-693.771
-685.877
-677.877
-669.788
-661.624
-653.395
-645.097
-636.728
-628.289
-619.783
-611.214
-602.581
-593.881
-585.111
-576.28
-567.396
-558.476
-549.528
-540.552
-531.536
-522.458
-513.33
-504.192
-495.091
-486.088
-477.19
-468.342
-459.522
-450.728
-441.966
-433.296
-424.68
-415.917
-407.039
-398.313
-389.96
-382.299
-375.327
-368.474
-361.491
-354.56
-347.343
-339.184
-329.481
-317.211
-302.158
-285.533
-267.909
-249.236
-230.374
-212.264
-195.716
-182.348
-172.689
-165.319
-159.737
-155.988
-152.785
-149.18
-144.473
-137.012
-126.163
-112.894
-97.179
-78.737
-58.766
-37.935
-16.634
3.988
23.556
42.459
60.272
76.579
92.066
107.03
121.595
136.261
150.999
165.616
180.389
195.5
210.644
225.649
240.383
254.613
268.396
281.79
294.641
306.81
318.228
328.787
338.461
347.297
355.212
362.109
367.923
372.526
375.925
378.302
379.542
379.301
377.284
373.097
366.751
358.845
349.601
338.818
326.836
314.278
301.874
290.81
281.126
271.464
261.121
249.952
237.348
222.729
205.165
182.946
156.007
126.075
94.228
61.141
27.59
-6.097
-39.091
-69.77
-97.852
-124.396
-150.076
-175.436
-200.821
-226.005
-251.117
-276.781
-302.991
-329.197
-355.025
-380.062
-404.079
-427.216
-449.428
-470.471
-490.366
-509.2
-526.79
-543.076
-557.892
-570.909
-582.293
-592.32
-600.839
-607.792
-613.564
-618.343
-622.61
-626.988
-630.878
-633.602
-635.189
-635.491
-634.101
-630.899
-625.161
-616.042
-604.371
-591.005
-576.15
-560.275
-543.677
-526.41
-509.238
-492.971
-477.108
-461.189
-445.093
-428.479
-411.425
-394.132
-376.312
-357.704
-338.607
-319.266
-299.869
-280.701
-261.743
-242.949
-224.458
-206.372
-188.719
-171.549
-154.876
-138.693
-123.083
-108.119
-93.844
-80.311
-67.537
-55.532
-44.317
-33.905
-24.306
-15.527
-7.566
-0.416
5.933
11.5
16.302
20.363
23.715
26.393
28.436
29.892
30.8
31.207
31.162
30.718
29.932
28.863
27.57
26.115
24.558
22.96
21.383
19.886
18.529
17.365
16.448
15.829
15.555
15.668
16.21
17.214
18.709
20.721
23.268
26.366
30.021
34.238
39.014
44.34
50.203
56.584
63.456
70.79
78.551
86.696
95.182
103.958
112.97
122.164
131.477
140.851
150.22
159.521
168.689
177.66
186.37
194.756
202.758
210.318
217.381
223.895
229.813
235.091
239.69
243.575
246.718
249.094
250.684
251.474
251.455
250.623
248.981
246.535
243.298
239.288
234.527
229.041
222.863
216.026
208.569
200.533
191.96
182.896
173.387
163.482
153.229
142.677
131.873
120.862
109.69
98.398
87.025
75.608
64.178
52.764
41.393
30.089
18.875
7.769
-3.219
-14.083
-24.822
-35.44
-45.939
-56.327
-66.618
-76.825
-86.963
-97.045
-107.079
-117.08
-127.069
-137.072
-147.125
-157.256
-167.481
-177.813
-188.257
-198.821
-209.516
-220.349
-231.319
-242.432
-253.693
-265.121
-276.748
-288.593
-300.664
-312.947
-325.399
-338.004
-350.764
-363.718
-376.951
-390.499
-404.343
-418.449
-432.744
-447.187
-461.818
-476.565
-491.235
-505.784
-520.262
-534.984
-550.598
-567.334
-584.919
-602.99
-621.078
-638.606
-655.085
-669.375
-679.611
-684.912
-685.449
-682.046
-676.284
-669.513
-662.578
-657.119
-655.563
-659.169
-668.028
-681.083
-695.997
-711.025
-725.25
-737.235
-745.155
-747.943
-745.222
-737.692
-727.209
-715.02
-701.673
-687.829
-674.112
-660.975
-648.753
-637.233
-625.647
-613.556
-600.844
-587.479
-573.598
-559.259
-544.426
-529.191
-513.742
-498.209
-482.675
-467.163
-451.627
-436.072
-420.55
-405.123
-389.873
-374.866
-360.152
-345.782
-331.804
-318.266
-305.222
-292.716
-280.791
-269.487
-258.84
-248.886
-239.664
-231.198
-223.505
-216.586
-210.434
-205.037
-200.383
-196.457
-193.237
-190.698
-188.806
-187.528
-186.823
-186.65
-186.962
-187.708
-188.834
-190.285
-192.006
-193.941
-196.035
-198.232
-200.477
-202.713
-204.889
-206.953
-208.857
-210.556
-212.007
-213.171
-214.013
-214.505
-214.622
-214.343
-213.654
-212.545
-211.013
-209.059
-206.69
-203.92
-200.766
-197.251
-193.403
-189.254
-184.841
-180.202
-175.381
-170.423
-165.374
-160.286
-155.21
-150.2
-145.308
-140.589
-136.097
-131.885
-128.007
-124.51
-121.441
-118.842
-116.752
-115.206
-114.235
-113.864
-114.113
-114.996
-116.525
-118.705
-121.538
-125.015
-129.126
-133.85
-139.165
-145.043
-151.448
-158.343
-165.684
-173.422
-181.507
-189.888
-198.506
-207.299
-216.201
-225.144
-234.054
-242.857
-251.472
-259.814
-267.798
-275.344
-282.372
-288.806
-294.569
-299.592
-303.809
-307.164
-309.604
-311.071
-311.506
-310.849
-309.044
-306.038
-301.781
-296.223
-289.316
-281.019
-271.305
-260.168
-247.598
-233.582
-218.097
-201.109
-182.606
-162.608
-141.148
-118.26
-93.996
-68.431
-41.684
-13.927
14.668
43.983
73.951
104.531
135.673
167.331
199.442
231.979
264.981
298.462
332.405
366.842
401.803
437.362
473.704
511.027
549.44
589.057
629.912
671.671
713.957
756.727
799.732
842.61
885.45
926.486
964.079
999.899
1034.286
1070.435
1112.114
1154.15
1193.025
1223.848
1240.132
1247.425
1250.441
1252.509
1259.208
1267.02
1272.477
1275.078
1272.694
1266.911
1259.737
1251.085
1241.502
1231.343
1220.678
1210.074
1199.973
1190.403
1181.341
1172.851
1164.941
1157.151
1148.647
1139.019
1128.25
1116.376
1103.933
1089.773
1071.038
1048.797
1025.783
1006.296
998.68
1001.789
1008.261
1012.799
1003.155
976.216
938.838
891.334
843.481
805.252
776.768
764.919
767.171
771.27
771.864
761.078
737.046
708.317
679.616
654.338
634.05
615.435
596.808
578.295
559.787
541.772
524.364
507.053
489.624
472.153
454.684
437.223
419.792
402.425
385.176
368.144
351.381
334.861
318.571
302.516
286.71
271.183
255.966
241.082
226.554
212.415
198.697
185.436
172.663
160.396
148.642
137.403
126.686
116.512
106.917
97.946
89.615
81.913
74.786
68.169
62.033
56.397
51.297
46.748
42.73
39.179
36.121
33.701
31.945
30.66
29.399
27.672
25.331
22.712
20.267
18.119
16.432
15.702
16.972
21.525
29.862
41.252
54.309
68.108
81.989
95.117
106.075
112.976
114.831
112.292
107.096
100.595
93.588
86.716
80.89
77.544
77.578
80.606
85.287
90.452
95.469
100.036
103.929
106.564
107.45
106.655
104.708
102.123
99.158
95.83
92.006
87.692
82.983
77.894
72.366
66.315
59.697
52.544
44.955
37.013
28.754
20.184
11.288
2.06
-7.481
-17.311
-27.404
-37.733
-48.277
-59.009
-69.888
-80.868
-91.912
-102.998
-114.13
-125.32
-136.546
-147.747
-158.839
-169.741
-180.384
-190.697
-200.578
-209.91
-218.6
-226.605
-233.939
-240.636
-246.682
-252.029
-256.59
-260.27
-263.027
-264.87
-265.805
-265.825
-264.936
-263.171
-260.656
-257.578
-254.048
-250.083
-245.586
-240.414
-234.496
-227.801
-220.3
-211.959
-202.681
-192.317
-180.802
-168.114
-154.194
-138.968
-122.235
-103.698
-83.184
-60.626
-36.08
-9.713
18.342
47.95
78.869
110.79
143.325
176
208.478
240.494
271.73
301.883
330.545
357.194
381.418
402.87
421.244
436.367
448.09
456.287
461.021
462.461
460.865
456.611
449.964
441.095
430.217
417.505
403.176
387.545
370.872
353.4
335.426
317.175
298.843
280.631
262.596
244.714
226.909
209.009
190.913
172.611
154.099
135.425
116.66
97.836
79.017
60.289
41.68
23.231
4.997
-12.988
-30.625
-47.774
-64.283
-79.949
-94.593
-108.091
-120.339
-131.262
-140.824
-148.99
-155.749
-161.123
-165.115
-167.729
-168.973
-168.852
-167.389
-164.627
-160.62
-155.439
-149.164
-141.872
-133.641
-124.553
-114.684
-104.112
-92.913
-81.154
-68.907
-56.25
-43.265
-30.037
-16.653
-3.195
10.256
23.618
36.816
49.78
62.445
74.752
86.65
98.09
109.026
119.419
129.231
138.43
146.986
154.875
162.075
168.568
174.342
179.387
183.699
187.277
190.124
192.244
193.647
194.344
194.349
193.678
192.348
190.38
187.796
184.622
180.883
176.607
171.823
166.56
160.846
154.71
148.179
141.279
134.036
126.474
118.619
110.494
102.125
93.538
84.757
75.811
66.726
57.531
48.253
38.92
29.563
20.208
10.887
1.629
-7.537
-16.581
-25.472
-34.181
-42.676
-50.929
-58.911
-66.592
-73.943
-80.938
-87.547
-93.744
-99.502
-104.794
-109.593
-113.874
-117.613
-120.786
-123.371
-125.35
-126.706
-127.425
-127.498
-126.917
-125.68
-123.787
-121.243
-118.059
-114.246
-109.822
-104.81
-99.235
-93.125
-86.516
-79.443
-71.949
-64.076
-55.873
-47.39
-38.68
-29.8
-20.809
-11.768
-2.74
6.211
15.016
23.608
31.919
39.879
47.419
54.472
60.97
66.848
72.044
76.499
80.158
82.971
84.89
85.876
85.895
84.919
82.926
79.9
75.831
70.714
64.552
57.352
49.129
39.902
29.696
18.544
6.487
-6.432
-20.159
-34.638
-49.809
-65.604
-81.953
-98.781
-116.01
-133.559
-151.347
-169.285
-187.286
-205.261
-223.12
-240.776
-258.144
-275.14
-291.684
-307.701
-323.122
-337.889
-351.948
-365.246
-377.736
-389.376
-400.126
-409.954
-418.827
-426.713
-433.585
-439.429
-444.242
-448.03
-450.812
-452.61
-453.453
-453.385
-452.448
-450.685
-448.14
-444.849
-440.842
-436.167
-430.878
-425.036
-418.726
-412.011
-404.939
-397.567
-389.927
-382.023
-373.841
-365.32
-356.386
-347.011
-337.18
-326.905
-316.252
-305.273
-294.031
-282.609
-271.028
-259.32
-247.533
-235.68
-223.808
-212.018
-200.427
-189.221
-178.626
-168.766
-159.734
-151.578
-144.194
-137.456
-131.181
-125.105
-119.061
-112.89
-106.38
-99.352
-91.612
-82.911
-73.026
-61.696
-48.576
-33.429
-16.052
3.717
25.81
50.095
76.368
104.32
133.734
164.387
195.923
227.959
260.127
292.052
323.429
353.969
383.261
410.938
436.662
460.122
481.205
499.853
516.024
529.721
540.888
549.52
555.786
559.952
562.236
562.81
561.773
559.182
555.214
550.057
543.867
536.769
528.797
519.989
510.431
500.248
489.589
478.541
467.057
455.01
442.326
428.994
415.056
400.582
385.579
370.051
354.051
337.678
321.053
304.266
287.359
270.326
253.165
235.919
218.686
201.601
184.767
168.254
152.116
136.402
121.176
106.485
92.336
78.698
65.536
52.832
40.58
28.788
17.451
6.541
-3.978
-14.154
-24.031
-33.651
-43.067
-52.335
-61.519
-70.669
-79.827
-89.022
-98.284
-107.645
-117.136
-126.785
-136.612
-146.634
-156.866
-167.321
-178.008
-188.925
-200.063
-211.404
-222.927
-234.604
-246.401
-258.279
-270.193
-282.095
-293.93
-305.641
-317.168
-328.444
-339.398
-349.959
-360.05
-369.594
-378.513
-386.727
-394.158
-400.73
-406.366
-410.996
-414.551
-416.964
-418.175
-418.128
-416.772
-414.064
-409.963
-404.437
-397.461
-389.018
-379.1
-367.705
-354.841
-340.525
-324.782
-307.645
-289.155
-269.364
-248.329
-226.115
-202.797
-178.455
-153.177
-127.059
-100.201
-72.711
-44.701
-16.287
12.411
41.268
70.158
98.955
127.529
155.751
183.494
210.629
237.031
262.579
287.155
310.642
332.933
353.923
373.515
391.619
408.152
423.039
436.212
447.613
457.193
464.912
470.737
474.648
476.631
476.685
474.814
471.036
465.374
457.864
448.548
437.476
424.708
410.311
394.359
376.932
358.115
337.999
316.68
294.258
270.834
246.514
221.401
195.602
169.228
142.387
115.186
87.73
60.117
32.441
4.801
-22.705
-50.007
-77.037
-103.729
-130.028
-155.858
-181.137
-205.834
-229.928
-253.329
-275.971
-297.799
-318.749
-338.847
-358.163
-376.653
-394.243
-411.14
-427.594
-443.476
-458.821
-473.693
-487.608
-501.963
-518.121
-534.207
-549.675
-561.053
-564.182
-563.726
-562.8
-566.032
-579.765
-598.427
-617.294
-633.135
-640.594
-643.521
-645.812
-648.337
-653.466
-659.82
-665.624
-671.208
-676.336
-681.113
-685.884
-690.401
-694.465
-698.124
-701.383
-704.208
-706.596
-708.557
-710.089
-711.22
-711.982
-712.351
-712.304
-711.851
-710.995
-709.739
-708.098
-706.086
-703.72
-701.048
-698.113
-694.931
-691.528
-687.935
-684.18
-680.327
-676.445
-672.545
-668.653
-664.875
-661.322
-658.119
-655.372
-653.065
-651.132
-649.606
-648.567
-647.829
-647.13
-646.56
-646.077
-645.63
-645.788
-645.267
-642.757
-640.214
-638.199
-640.205
-650.505
-664.409
-678.795
-689.002
-688.587
-683.254
-677.933
-676.135
-683.45
-695.963
-709.539
-722.919
-733.376
-742.134
-750.883
-759.264
-767.346
-774.634
-780.542
-785.348
-789.509
-793.285
-796.522
-798.467
-798.394
-796.077
-791.422
-784.168
-773.365
-757.748
-736.859
-711.465
-683.08
-652.786
-621.296
-589.464
-558.829
-531.455
-508.619
-490.026
-474.057
-459.374
-445.116
-430.415
-414.243
-395.123
-372.107
-345.659
-317.252
-288.128
-259.052
-230.46
-202.653
-176.344
-152.005
-129.316
-107.684
-86.653
-66.267
-47.211
-29.917
-14.182
0.28
13.773
26.687
39.315
52.673
68.562
87.779
110.069
134.574
159.647
183.796
205.981
224.276
236.039
239.99
236.111
225.545
210.711
193.48
174.946
156.831
141.343
129.852
122.963
120.209
119.993
121.41
124.373
128.746
134.331
140.984
148.554
157.327
168.123
181.34
196.937
214.655
233.944
254.388
275.799
297.928
320.417
342.905
364.985
386.247
406.481
425.526
443.181
459.281
473.711
486.44
497.561
507.306
515.901
523.451
530.076
535.884
540.692
544.309
546.968
548.734
549.573
550.009
548.661
544.195
538.609
532.5
529.38
533.419
539.765
545.199
545.021
532.799
514.266
494.292
476.228
465.615
458.647
451.452
443.229
431.635
418.138
404.633
390.894
377.277
363.786
350.161
336.728
323.761
311.29
299.391
288.171
277.695
267.996
259.118
251.084
243.907
237.654
232.361
228
224.543
221.954
220.205
219.303
219.233
219.924
221.281
223.149
225.356
227.81
230.431
233.165
235.984
238.742
241.353
243.93
246.568
249.289
251.859
253.54
253.601
251.888
248.503
243.749
238.053
231.574
225.436
221.842
222.763
229.723
241.475
255.667
272.106
289.49
309.011
330.71
347.427
356.497
353.093
331.869
295.323
237.575
158.836
68.663
-21.859
-86.964
-109.306
-85.83
-23.149
52.829
118.449
157.768
163.02
140.576
100.749
55.291
10.774
-28.308
-57.172
-75.648
-78.653
-67.267
-51.516
-37.376
-33.449
-42.206
-55.655
-68.767
-77.571
-80.095
-79.102
-76.25
-71.657
-65.21
-57.017
-46.362
-30.943
-11.985
7.344
22.708
24.668
11.622
-6.755
-19.312
-9.627
31.179
91.121
152.59
196.776
208.839
196.562
179.351
170.217
177.644
194.799
202.427
196.809
185.585
180.367
199.75
244.304
298.324
350.537
388.664
409.53
422.038
429.952
435.347
440.647
444.307
446.021
446.923
447.392
448.43
451.643
458.167
467.603
478.588
490.032
501.146
511.748
522.069
531.8
540.3
547.549
553.988
560.024
566.053
572.15
578.083
583.804
589.431
595.01
600.539
605.986
611.271
616.387
621.419
626.424
631.446
636.507
641.593
646.702
651.844
657.032
662.282
667.607
673.011
678.488
684.033
689.644
695.319
701.061
706.864
712.721
718.625
724.574
730.575
736.635
742.756
748.937
755.173
761.459
767.792
774.167
780.575
787.01
793.458
799.91
806.352
812.775
819.163
825.502
831.776
837.968
844.059
850.032
855.871
861.556
867.068
872.388
877.497
882.376
887.003
891.359
895.422
899.171
902.583
905.637
908.312
910.586
912.438
913.85
914.803
915.282
915.272
914.762
913.741
912.203
910.143
907.556
904.444
900.808
896.652
891.982
886.808
881.139
874.988
868.369
861.297
853.791
845.867
837.547
828.852
819.802
810.421
800.734
790.766
780.541
770.087
759.43
748.596
737.613
726.505
715.297
704.013
692.674
681.302
669.913
658.525
647.152
635.805
624.494
613.227
602.008
590.84
579.723
568.655
557.632
546.648
535.694
524.763
513.843
502.923
491.99
481.029
470.027
458.967
447.835
436.613
425.285
413.835
402.246
390.503
378.592
366.5
354.215
341.727
329.03
316.116
302.984
289.634
276.068
262.292
248.314
234.144
219.799
205.296
190.655
175.899
161.052
146.144
131.205
116.267
101.363
86.53
71.804
57.223
42.827
28.654
14.745
1.14
-12.122
-25.001
-37.457
-49.453
-60.953
-71.921
-82.328
-92.141
-101.334
-109.885
-117.772
-124.982
-131.503
-137.327
-142.452
-146.878
-150.614
-153.669
-156.06
-157.803
-158.921
-159.442
-159.397
-158.822
-157.755
-156.238
-154.315
-152.033
-149.443
-146.595
-143.543
-140.339
-137.037
-133.692
-130.359
-127.094
-123.952
-120.984
-118.241
-115.772
-113.625
-111.842
-110.459
-109.508
-109.016
-109.007
-109.499
-110.5
-112.014
-114.04
-116.576
-119.62
-123.158
-127.171
-131.636
-136.526
-141.813
-147.458
-153.414
-159.622
-166.02
-172.549
-179.15
-185.764
-192.33
-198.783
-205.056
-211.092
-216.842
-222.251
-227.251
-231.754
-235.672
-238.946
-241.558
-243.514
-244.811
-245.438
-245.396
-244.709
-243.428
-241.579
-239.146
-236.063
-232.258
-227.713
-222.461
-216.59
-210.19
-203.302
-195.915
-188.009
-179.608
-170.745
-161.434
-151.619
-141.216
-130.239
-118.846
-107.327
-95.971
-84.982
-74.49
-64.573
-55.333
-46.929
-39.552
-33.368
-28.488
-25.036
-23.193
-23.239
-25.483
-30.083
-36.995
-46.006
-56.912
-69.602
-84.02
-100.131
-117.843
-137.028
-157.571
-179.408
-202.506
-226.777
-252.056
-278.074
-304.538
-331.273
-358.252
-385.561
-413.255
-441.319
-469.704
-498.357
-527.268
-556.422
-585.747
-615.113
-644.376
-673.441
-702.26
-730.849
-759.221
-787.33
-815.076
-842.318
-868.936
-894.841
-919.955
-944.193
-967.459
-989.678
-1010.821
-1030.899
-1049.93
-1067.917
-1084.848
-1100.705
-1115.481
-1129.192
-1141.862
-1153.525
-1164.215
-1173.967
-1182.826
-1190.846
-1198.087
-1204.603
-1210.44
-1215.634
-1220.228
-1224.267
-1227.8
-1230.876
-1233.539
-1235.834
-1237.809
-1239.513
-1240.993
-1242.294
-1243.454
-1244.508
-1245.49
-1246.429
-1247.353
-1248.284
-1249.24
-1250.236
-1251.282
-1252.387
-1253.555
-1254.784
-1256.07
-1257.406
-1258.781
-1260.181
-1261.591
-1262.991
-1264.36
-1265.677
-1266.917
-1268.059
-1269.078
-1269.949
-1270.648
-1271.15
-1271.431
-1271.467
-1271.233
-1270.705
-1269.858
-1268.669
-1267.117
-1265.18
-1262.839
-1260.075
-1256.873
-1253.218
-1249.098
-1244.503
-1239.424
-1233.856
-1227.795
-1221.238
-1214.188
-1206.648
-1198.622
-1190.118
-1181.146
-1171.716
-1161.84
-1151.533
-1140.808
-1129.68
-1118.167
-1106.284
-1094.05
-1081.482
-1068.6
-1055.423
-1041.973
-1028.271
-1014.338
-1000.198
-985.875
-971.392
-956.775
-942.049
-927.238
-912.37
-897.47
-882.564
-867.677
-852.834
-838.06
-823.38
-808.816
-794.391
-780.127
-766.043
-752.161
-738.497
-725.071
-711.899
-698.995
-686.375
-674.052
-662.036
-650.337
-638.965
-627.923
-617.218
-606.85
-596.818
-587.119
-577.748
-568.695
-559.948
-551.494
-543.315
-535.392
-527.702
-520.22
-512.918
-505.769
-498.739
-491.797
-484.908
-478.035
-471.142
-464.191
-457.142
-449.957
-442.595
-435.016
-427.182
-419.052
-410.587
-401.75
-392.503
-382.812
-372.643
-361.963
-350.744
-338.958
-326.582
-313.595
-299.979
-285.72
-270.808
-255.234
-238.997
-222.097
-204.537
-186.326
-167.474
-147.995
-127.907
-107.23
-85.988
-64.205
-41.911
-19.135
4.09
27.731
51.753
76.118
100.789
125.728
150.897
176.255
201.765
227.386
253.081
278.812
304.541
330.233
355.853
381.37
406.752
431.97
456.998
481.812
506.39
530.713
554.762
578.524
601.986
625.136
647.967
670.473
692.649
714.491
736
757.175
778.017
798.53
818.717
838.581
858.129
877.365
896.296
914.928
933.267
951.322
969.098
986.604
1003.846
1020.833
1037.569
1054.061
1070.314
1086.334
1102.122
1117.683
1133.016
1148.121
1162.999
1177.645
1192.057
1206.228
1220.152
1233.82
1247.222
1260.348
1273.184
1285.717
1297.932
1309.812
1321.341
1332.501
1343.272
1353.634
1363.566
1373.046
1382.05
1390.551
1398.525
1405.943
1412.776
1418.993
1424.564
1429.456
1433.635
1437.068
1439.72
1441.557
1442.543
1442.643
1441.823
1440.049
1437.287
1433.506
1428.674
1422.763
1415.745
1407.594
1398.286
1387.799
1376.114
1363.213
1349.08
1333.703
1317.07
1299.175
1280.013
1259.584
1237.889
1214.936
1190.735
1165.3
1138.65
1110.809
1081.804
1051.667
1020.436
988.151
954.858
920.606
885.449
849.444
812.652
775.137
736.965
698.204
658.925
619.202
579.106
538.715
498.104
457.349
416.531
375.726
335.013
294.472
254.181
214.218
174.66
135.584
97.063
59.169
21.973
-14.46
-50.064
-84.779
-118.549
-151.32
-183.046
-213.682
-243.188
-271.532
-298.683
-324.618
-349.315
-372.76
-394.941
-415.853
-435.491
-453.857
-470.957
-486.8
-501.398
-514.768
-526.932
-537.914
-547.741
-556.447
-564.067
-570.64
-576.208
-580.818
-584.517
-587.357
-589.39
-590.673
-591.261
-591.214
-590.589
-589.446
-587.844
-585.843
-583.502
-580.877
-578.025
-575.002
-571.862
-568.657
-565.439
-562.257
-559.158
-556.189
-553.394
-550.814
-548.489
-546.455
-544.747
-543.396
-542.43
-541.872
-541.744
-542.063
-542.843
-544.093
-545.818
-548.02
-550.697
-553.842
-557.447
-561.498
-565.978
-570.869
-576.149
-581.793
-587.775
-594.067
-600.638
-607.456
-614.489
-621.702
-629.059
-636.525
-644.062
-651.632
-659.198
-666.72
-674.161
-681.483
-688.649
-695.621
-702.365
-708.846
-715.032
-720.892
-726.398
-731.523
-736.244
-740.539
-744.39
-747.781
-750.7
-753.135
-755.079
-756.527
-757.475
-757.924
-757.874
-757.329
-756.294
-754.777
-752.785
-750.329
-747.421
-744.073
-740.298
-736.112
-731.529
-726.566
-721.24
-715.568
-709.568
-703.256
-696.651
-689.77
-682.628
-675.243
-667.63
-659.803
-651.775
-643.557
-635.162
-626.598
-617.875
-608.998
-599.974
-590.808
-581.504
-572.064
-562.49
-552.785
-542.947
-532.978
-522.876
-512.641
-502.271
-491.767
-481.126
-470.348
-459.432
-448.378
-437.185
-425.854
-414.387
-402.783
-391.046
-379.179
-367.186
-355.072
-342.844
-330.509
-318.076
-305.556
-292.961
-280.303
-267.597
-254.859
-242.106
-229.356
-216.629
-203.944
-191.324
-178.791
-166.366
-154.075
-141.941
-129.988
-118.241
-106.725
-95.464
-84.482
-73.803
-63.452
-53.449
-43.816
-34.573
-25.739
-17.333
-9.371
-1.867
5.165
11.715
17.775
23.338
28.401
32.963
37.027
40.599
43.688
46.305
48.465
50.187
51.492
52.404
52.952
53.165
53.077
52.727
52.156
51.406
50.525
49.561
48.566
47.595
46.702
45.944
45.378
45.06
45.051
45.411
46.202
47.484
49.317
51.762
54.879
58.726
63.358
68.828
75.183
82.467
90.722
99.986
110.29
121.662
134.126
147.699
162.398
178.231
195.203
213.307
232.532
252.861
274.274
296.739
320.218
344.665
370.032
396.273
423.336
451.166
479.697
508.863
538.595
568.822
599.466
630.438
661.637
692.964
724.324
755.628
786.786
817.713
848.319
878.521
908.252
937.454
966.058
993.985
1021.139
1047.421
1072.761
1097.129
1120.512
1142.889
1164.241
1184.562
1203.874
1222.227
1239.641
1256.098
1271.529
1285.862
1299.075
1311.184
1322.245
1332.323
1341.438
1349.57
1356.705
1362.851
1368.001
1372.115
1375.086
1376.763
1377.076
1376.06
1373.835
1370.533
1366.237
1361.013
1354.921
1348.038
1340.497
1332.461
1324.076
1315.495
1306.909
1298.542
1290.697
1283.724
1277.874
1273.293
1270.06
1268.214
1267.783
1268.75
1271.037
1274.516
1278.988
1284.222
1289.968
1295.902
1301.683
1306.978
1311.421
1314.62
1316.242
1315.989
1313.58
1308.807
1301.535
1291.711
1279.374
1264.621
1247.625
1228.624
1207.932
1185.974
1163.143
1139.765
1116.15
1092.598
1069.403
1046.893
1025.395
1005.152
986.345
969.099
953.479
939.529
927.221
916.45
907.02
898.656
891.141
884.332
878.121
872.42
867.129
862.115
857.252
852.479
847.742
842.995
838.199
833.306
828.305
823.24
818.198
813.29
808.589
804.123
799.898
795.91
792.153
788.628
785.314
782.165
779.147
776.239
773.429
770.717
768.091
765.525
762.985
760.44
757.872
755.27
752.632
749.955
747.243
744.507
741.77
739.058
736.393
733.79
731.262
728.817
726.465
724.216
722.075
720.043
718.122
716.314
714.62
713.041
711.574
710.209
708.936
707.741
706.609
705.52
704.451
703.375
702.264
701.086
699.808
698.395
696.805
694.998
692.932
690.561
687.841
684.725
681.167
677.122
672.546
667.4
661.644
655.244
648.168
640.391
631.889
622.646
612.649
601.888
590.361
578.069
565.018
551.219
536.689
521.448
505.522
488.94
471.736
453.949
435.62
416.794
397.52
377.848
357.83
337.524
316.984
296.27
275.438
254.547
233.654
212.814
192.081
171.505
151.134
131.012
111.178
91.667
72.508
53.725
35.336
17.354
-0.214
-17.368
-34.11
-50.453
-66.409
-81.999
-97.246
-112.179
-126.829
-141.231
-155.422
-169.443
-183.335
-197.141
-210.907
-224.677
-238.497
-252.412
-266.466
-280.701
-295.159
-309.878
-324.893
-340.236
-355.936
-372.017
-388.496
-405.39
-422.705
-440.445
-458.608
-477.184
-496.159
-515.512
-535.219
-555.249
-575.567
-596.132
-616.903
-637.832
-658.871
-679.969
-701.073
-722.129
-743.083
-763.879
-784.464
-804.783
-824.784
-844.415
-863.629
-882.378
-900.618
-918.308
-935.412
-951.894
-967.726
-982.882
-997.341
-1011.086
-1024.106
-1036.394
-1047.949
-1058.775
-1068.88
-1078.278
-1086.987
-1095.028
-1102.428
-1109.217
-1115.425
-1121.087
-1126.24
-1130.921
-1135.167
-1139.018
-1142.511
-1145.685
-1148.575
-1151.219
-1153.648
-1155.895
-1157.989
-1159.957
-1161.824
-1163.611
-1165.336
-1167.016
-1168.663
-1170.288
-1171.897
-1173.495
-1175.081
-1176.653
-1178.206
-1179.732
-1181.218
-1182.651
-1184.014
-1185.288
-1186.453
-1187.488
-1188.37
-1189.076
-1189.582
-1189.865
-1189.903
-1189.674
-1189.159
-1188.338
-1187.196
-1185.718
-1183.892
-1181.711
-1179.168
-1176.26
-1172.986
-1169.349
-1165.355
-1161.011
-1156.327
-1151.316
-1145.992
-1140.372
-1134.475
-1128.322
-1121.936
-1115.34
-1108.56
-1101.623
-1094.556
-1087.387
-1080.145
-1072.859
-1065.556
-1058.264
-1051.012
-1043.825
-1036.728
-1029.746
-1022.899
-1016.209
-1009.693
-1003.366
-997.242
-991.329
-985.636
-980.167
-974.926
-969.912
-965.125
-960.559
-956.209
-952.069
-948.128
-944.379
-940.808
-937.404
-934.154
-931.044
-928.061
-925.191
-922.42
-919.734
-917.121
-914.567
-912.061
-909.591
-907.146
-904.718
-902.296
-899.874
-897.444
-895.001
-892.541
-890.062
-887.561
-885.04
-882.498
-879.937
-877.36
-874.77
-872.17
-869.562
-866.951
-864.338
-861.725
-859.115
-856.508
-853.901
-851.294
-848.681
-846.056
-843.411
-840.734
-838.013
-835.231
-832.371
-829.412
-826.331
-823.104
-819.703
-816.098
-812.26
-808.154
-803.746
-799.001
-793.881
-788.347
-782.363
-775.888
-768.885
-761.316
-753.144
-744.336
-734.857
-724.677
-713.769
-702.107
-689.671
-676.443
-662.41
-647.566
-631.907
-615.436
-598.164
-580.105
-561.281
-541.72
-521.456
-500.531
-478.991
-456.891
-434.29
-411.255
-387.856
-364.171
-340.281
-316.274
-292.24
-268.273
-244.471
-220.934
-197.763
-175.06
-152.928
-131.469
-110.785
-90.975
-72.135
-54.36
-37.739
-22.356
-8.291
4.384
15.603
25.307
33.446
39.979
44.874
48.108
49.67
49.555
47.772
44.34
39.286
32.652
24.485
14.846
3.804
-8.561
-22.161
-36.899
-52.672
-69.367
-86.865
-105.043
-123.771
-142.916
-162.34
-181.904
-201.467
-220.886
-240.02
-258.729
-276.872
-294.315
-310.925
-326.576
-341.146
-354.518
-366.586
-377.249
-386.414
-393.998
-399.928
-404.14
-406.58
-407.204
-405.981
-402.889
-397.917
-391.065
-382.343
-371.772
-359.383
-345.218
-329.326
-311.767
-292.609
-271.928
-249.808
-226.339
-201.617
-175.746
-148.832
-120.986
-92.324
-62.962
-33.021
-2.622
28.116
59.07
90.119
121.147
152.034
182.669
212.94
242.74
271.968
300.526
328.322
355.268
381.285
406.295
430.231
453.029
474.634
494.995
514.069
531.819
548.216
563.236
576.861
589.083
599.895
609.3
617.306
623.926
629.18
633.091
635.69
637.01
637.091
635.976
633.711
630.349
625.942
620.547
614.225
607.036
599.045
590.317
580.919
570.919
560.385
549.389
538.001
526.29
514.328
502.185
489.932
477.638
465.371
453.199
441.187
429.399
417.897
406.742
395.992
385.7
375.919
366.699
358.084
350.118
342.838
336.281
330.476
325.451
321.231
317.834
315.277
313.572
312.728
312.749
313.636
315.387
317.995
321.449
325.735
330.834
336.723
343.378
350.768
358.86
367.617
376.998
386.962
397.46
408.443
419.86
431.655
443.772
456.152
468.735
481.458
494.259
507.074
519.839
532.486
544.952
557.17
569.073
580.595
591.67
602.23
612.21
621.544
630.169
638.02
645.035
651.155
656.32
660.475
663.567
665.545
666.362
665.975
664.345
661.435
657.215
651.66
644.747
636.46
626.789
615.728
603.275
589.436
574.222
557.649
539.739
520.52
500.026
478.295
455.376
431.319
406.182
380.032
352.936
324.973
296.224
266.775
236.719
206.153
175.176
143.895
112.415
80.847
49.302
17.893
-13.265
-44.06
-74.378
-104.109
-133.141
-161.368
-188.685
-214.992
-240.192
-264.193
-286.907
-308.254
-328.158
-346.55
-363.369
-378.561
-392.078
-403.883
-413.946
-422.246
-428.769
-433.513
-436.482
-437.692
-437.164
-434.931
-431.032
-425.515
-418.434
-409.851
-399.836
-388.461
-375.808
-361.959
-347.004
-331.035
-314.146
-296.436
-278.001
-258.944
-239.363
-219.36
-199.032
-178.478
-157.793
-137.069
-116.397
-95.863
-75.547
-55.527
-35.874
-16.654
2.073
20.254
37.84
54.792
71.075
86.663
101.535
115.678
129.084
141.753
153.689
164.903
175.412
185.238
194.407
202.952
210.907
218.314
225.215
231.657
237.689
243.363
248.732
253.851
258.775
263.56
268.262
272.938
277.641
282.425
287.34
292.438
297.763
303.359
309.267
315.524
322.161
329.209
336.691
344.63
353.042
361.938
371.329
381.216
391.601
402.478
413.838
425.668
437.95
450.664
463.782
477.277
491.115
505.261
519.674
534.313
549.134
564.088
579.128
594.202
609.259
624.246
639.11
653.798
668.258
682.437
696.285
709.752
722.791
735.355
747.401
758.887
769.773
780.024
789.606
798.487
806.641
814.044
820.674
826.516
831.554
835.781
839.19
841.78
843.551
844.51
844.665
844.03
842.621
840.457
837.561
833.958
829.677
824.748
819.203
813.076
806.401
799.217
791.559
783.464
774.97
766.116
756.938
747.472
737.756
727.825
717.712
707.451
697.073
686.608
676.084
665.527
654.961
644.408
633.887
623.416
613.008
602.677
592.431
582.277
572.221
562.264
552.406
542.644
532.974
523.389
513.882
504.442
495.058
485.718
476.408
467.115
457.823
448.517
439.182
429.8
420.358
410.837
401.224
391.502
381.657
371.674
361.541
351.244
340.772
330.115
319.264
308.212
296.951
285.479
273.791
261.887
249.766
237.431
224.885
212.135
199.186
186.047
172.728
159.242
145.6
131.818
117.91
103.893
89.785
75.605
61.371
47.105
32.828
18.561
4.327
-9.85
-23.947
-37.942
-51.808
-65.525
-79.066
-92.411
-105.536
-118.419
-131.039
-143.376
-155.412
-167.128
-178.509
-189.539
-200.205
-210.497
-220.403
-229.916
-239.029
-247.739
-256.042
-263.938
-271.427
-278.514
-285.202
-291.498
-297.411
-302.951
-308.13
-312.962
-317.463
-321.65
-325.541
-329.157
-332.517
-335.645
-338.562
-341.29
-343.854
-346.275
-348.577
-350.781
-352.907
-354.976
-357.005
-359.012
-361.01
-363.013
-365.03
-367.069
-369.137
-371.234
-373.362
-375.519
-377.698
-379.891
-382.087
-384.273
-386.433
-388.545
-390.589
-392.539
-394.368
-396.046
-397.541
-398.82
-399.846
-400.584
-400.994
-401.04
-400.682
-399.883
-398.604
-396.809
-394.464
-391.536
-387.994
-383.812
-378.965
-373.433
-367.199
-360.251
-352.581
-344.186
-335.066
-325.228
-314.683
-303.447
-291.54
-278.988
-265.821
-252.076
-237.793
-223.017
-207.797
-192.187
-176.245
-160.033
-143.615
-127.059
-110.435
-93.815
-77.272
-60.881
-44.716
-28.852
-13.361
1.684
16.215
30.164
43.467
56.063
67.897
78.917
89.074
98.327
106.637
113.973
120.308
125.62
129.893
133.117
135.288
136.406
136.477
135.515
133.536
130.564
126.625
121.753
115.985
109.362
101.929
93.734
84.829
75.268
65.106
54.401
43.212
31.597
19.615
7.327
-5.212
-17.942
-30.809
-43.758
-56.737
-69.695
-82.585
-95.359
-107.975
-120.389
-132.563
-144.459
-156.043
-167.282
-178.146
-188.608
-198.643
-208.229
-217.344
-225.97
-234.091
-241.693
-248.763
-255.29
-261.265
-266.68
-271.527
-275.8
-279.495
-282.606
-285.129
-287.06
-288.396
-289.132
-289.267
-288.796
-287.717
-286.029
-283.729
-280.818
-277.295
-273.163
-268.425
-263.084
-257.148
-250.623
-243.519
-235.846
-227.619
-218.852
-209.561
-199.767
-189.49
-178.754
-167.585
-156.011
-144.062
-131.77
-119.17
-106.299
-93.195
-79.899
-66.453
-52.902
-39.293
-25.672
-12.088
1.409
14.769
27.943
40.88
53.531
65.848
77.786
89.298
100.341
110.876
120.865
130.271
139.063
147.213
154.695
161.49
167.58
172.952
177.599
181.518
184.708
187.176
188.932
189.988
190.364
190.083
189.172
187.663
185.593
183.003
179.935
176.438
172.559
168.353
163.874
159.179
154.323
149.365
144.363
139.38
134.475
129.711
125.144
120.828
116.816
113.159
109.905
107.1
104.788
103.002
101.781
101.157
101.162
101.828
103.173
105.206
107.932
111.349
115.458
120.265
125.77
131.96
138.822
146.333
154.472
163.218
172.535
182.377
192.687
203.401
214.465
225.836
237.472
249.343
261.383
273.49
285.562
297.481
309.177
320.645
331.841
342.699
353.16
363.112
372.549
381.644
390.288
398.136
404.887
410.132
413.865
416.673
418.766
419.929
420.486
421.046
422.323
425.488
430.565
436.166
441.558
446.57
450.562
452.919
452.68
448.104
439.084
427.328
413.886
399.399
384.61
369.816
355.8
344.145
335.085
327.499
320.667
313.994
307.095
300.159
292.986
284.886
275.789
266.168
256.378
246.814
237.652
228.715
220
211.662
203.745
196.237
189.12
182.315
175.826
169.743
164.123
159.006
154.408
150.308
146.697
143.573
140.931
138.767
137.071
135.827
135.018
134.624
134.618
134.977
135.671
136.667
137.929
139.425
141.112
142.955
144.939
147.041
149.234
151.492
153.759
155.964
158.088
160.107
161.922
163.444
164.594
165.278
165.491
165.272
164.531
163.138
161.272
159.148
156.574
153.525
150.017
145.456
141.316
139.029
136.479
133.009
124.758
107.113
85.142
62.221
43.386
35.561
32.611
29.336
22.177
5.255
-17.213
-40.948
-64.984
-86.703
-107.589
-129.557
-152.207
-175.756
-200.038
-224.624
-249.733
-275.532
-301.912
-328.814
-356.223
-384.088
-412.351
-440.962
-469.84
-498.896
-528.108
-557.449
-586.872
-616.338
-645.808
-675.239
-704.6
-733.862
-762.988
-791.944
-820.699
-849.225
-877.493
-905.481
-933.163
-960.519
-987.527
-1014.169
-1040.427
-1066.285
-1091.726
-1116.736
-1141.3
-1165.403
-1189.029
-1212.162
-1234.788
-1256.887
-1278.444
-1299.438
-1319.85
-1339.657
-1358.839
-1377.37
-1395.225
-1412.379
-1428.803
-1444.469
-1459.346
-1473.406
-1486.618
-1498.95
-1510.372
-1520.852
-1530.36
-1538.866
-1546.339
-1552.75
-1558.071
-1562.275
-1565.337
-1567.232
-1567.939
-1567.437
-1565.71
-1562.744
-1558.527
-1553.052
-1546.314
-1538.311
-1529.048
-1518.529
-1506.766
-1493.772
-1479.565
-1464.169
-1447.607
-1429.91
-1411.111
-1391.245
-1370.35
-1348.469
-1325.644
-1301.921
-1277.348
-1251.972
-1225.843
-1199.013
-1171.533
-1143.454
-1114.829
-1085.712
-1056.154
-1026.207
-995.922
-965.351
-934.543
-903.545
-872.404
-841.166
-809.872
-778.564
-747.282
-716.062
-684.94
-653.947
-623.114
-592.469
-562.037
-531.842
-501.905
-472.246
-442.883
-413.834
-385.116
-356.742
-328.729
-301.092
-273.843
-246.997
-220.567
-194.566
-169.009
-143.907
-119.274
-95.124
-71.47
-48.326
-25.706
-3.624
17.905
38.867
59.244
79.024
98.188
116.722
134.61
151.833
168.377
184.222
199.353
213.751
227.402
240.288
252.395
263.71
274.221
283.918
292.791
300.835
308.045
314.418
319.955
324.657
328.528
331.575
333.804
335.228
335.858
335.71
334.8
333.148
330.774
327.701
323.953
319.557
314.539
308.93
302.761
296.063
288.872
281.222
273.149
264.691
255.886
246.769
237.38
227.754
217.929
207.938
197.815
187.594
177.304
166.976
156.636
146.309
136.02
125.789
115.635
105.576
95.626
85.798
76.101
66.546
57.137
47.882
38.782
29.838
21.051
12.418
3.936
-4.402
-12.601
-20.671
-28.621
-36.459
-44.198
-51.847
-59.417
-66.918
-74.361
-81.753
-89.103
-96.418
-103.703
-110.961
-118.195
-125.406
-132.59
-139.745
-146.865
-153.941
-160.964
-167.921
-174.799
-181.584
-188.257
-194.8
-201.195
-207.419
-213.45
-219.265
-224.839
-230.147
-235.163
-239.86
-244.213
-248.194
-251.779
-254.942
-257.659
-259.906
-261.662
-262.906
-263.619
-263.784
-263.386
-262.414
-260.855
-258.704
-255.956
-252.607
-248.659
-244.115
-238.98
-233.263
-226.974
-220.128
-212.738
-204.823
-196.402
-187.496
-178.131
-168.329
-158.119
-147.527
-136.583
-125.315
-113.754
-101.929
-89.872
-77.612
-65.18
-52.605
-39.915
-27.141
-14.308
-1.444
11.427
24.281
37.097
49.854
62.532
75.116
87.59
99.94
112.155
124.224
136.139
147.895
159.485
170.909
182.164
193.25
204.17
214.927
225.526
235.972
246.268
256.423
266.448
276.357
286.162
295.876
305.502
315.044
324.524
333.945
343.286
352.545
361.701
370.744
379.729
388.695
397.626
406.578
415.647
424.863
434.301
444.018
453.857
463.678
473.524
483.185
492.18
500.507
508.336
515.46
522.475
529.015
532.276
532.561
532.631
536.167
552.308
583.969
622.148
655.903
669.047
651.648
615.304
577.218
555.077
563.115
593.811
630.393
660.538
673.361
670.527
662.274
653.739
648.659
647.613
646.917
645.426
643.401
640.635
637.667
634.652
631.101
626.856
621.966
616.351
609.976
602.911
595.207
586.924
578.171
568.993
559.385
549.375
539.004
528.299
517.298
506.034
494.533
482.833
470.976
459.006
446.962
434.885
422.813
410.787
398.845
387.028
375.372
363.915
352.692
341.737
331.084
320.762
310.801
301.228
292.068
283.343
275.073
267.274
259.961
253.143
246.83
241.026
235.735
230.956
226.687
222.924
219.66
216.888
214.597
212.775
211.409
210.484
209.983
209.889
210.184
210.849
211.864
213.208
214.862
216.805
219.015
221.471
224.153
227.039
230.109
233.344
236.724
240.231
243.849
247.563
251.36
255.226
259.153
263.13
267.15
271.207
275.296
279.414
283.558
287.725
291.916
296.129
300.364
304.623
308.906
313.214
317.547
321.906
326.291
330.702
335.138
339.599
344.082
348.587
353.11
357.647
362.195
366.748
371.3
375.843
380.368
384.865
389.32
393.722
398.056
402.304
406.45
410.475
414.359
418.084
421.627
424.968
428.087
430.962
433.574
435.904
437.933
439.645
441.025
442.06
442.737
443.047
442.984
442.541
441.718
440.513
438.93
436.975
434.655
431.983
428.972
425.642
422.012
418.108
413.956
409.589
405.039
400.344
395.544
390.681
385.8
380.949
376.176
371.531
367.066
362.832
358.881
355.265
352.035
349.24
346.929
345.147
343.94
343.349
343.412
344.165
345.64
347.865
350.863
354.655
359.256
364.675
370.92
377.988
385.877
394.576
404.069
414.334
425.347
437.073
449.478
462.517
476.145
490.309
504.953
520.017
535.439
551.151
567.084
583.168
599.328
615.493
631.586
647.532
663.259
678.692
693.76
708.392
722.521
736.081
749.012
761.256
772.76
783.473
793.353
802.359
810.459
817.625
823.834
829.07
833.325
836.593
838.878
840.188
840.54
839.953
838.456
836.08
832.864
828.852
824.091
818.634
812.537
805.859
798.664
791.016
782.983
774.633
766.037
757.264
748.385
739.468
730.582
721.792
713.162
704.754
696.626
688.831
681.419
674.439
667.93
661.93
656.472
651.583
647.283
643.591
640.518
638.068
636.243
635.039
634.445
634.446
635.024
636.155
637.809
639.955
642.557
645.574
648.964
652.682
656.679
660.905
665.309
669.839
674.443
679.067
683.659
688.168
692.544
696.739
700.704
704.395
707.769
710.787
713.41
715.604
717.337
718.579
719.307
719.495
719.125
718.181
716.649
714.517
711.78
708.431
704.47
699.898
694.72
688.941
682.572
675.626
668.117
660.063
651.482
642.396
632.826
622.798
612.336
601.466
590.215
578.61
566.68
554.453
541.956
529.219
516.269
503.136
489.846
476.429
462.912
449.323
435.689
422.038
408.396
394.792
381.25
367.798
354.46
341.262
328.228
315.38
302.741
290.331
278.169
266.273
254.659
243.341
232.332
221.642
211.279
201.251
191.56
182.211
173.203
164.534
156.201
148.198
140.518
133.15
126.083
119.303
112.794
106.538
100.513
94.698
89.068
83.596
78.254
73.01
67.833
62.689
57.542
52.356
47.093
41.715
36.182
30.457
24.499
18.271
11.736
4.857
-2.401
-10.071
-18.184
-26.77
-35.857
-45.472
-55.636
-66.371
-77.696
-89.627
-102.176
-115.354
-129.168
-143.623
-158.719
-174.454
-190.824
-207.821
-225.431
-243.641
-262.432
-281.781
-301.663
-322.048
-342.903
-364.192
-385.877
-407.914
-430.261
-452.871
-475.694
-498.682
-521.784
-544.949
-568.121
-591.242
-614.256
-637.106
-659.737
-682.1
-704.13
-725.764
-746.964
-767.689
-787.894
-807.545
-826.577
-844.912
-862.526
-879.398
-895.431
-910.542
-924.663
-937.711
-949.702
-960.7
-970.64
-979.419
-987.26
-994.426
-1000.756
-1006.272
-1011.033
-1014.473
-1018.178
-1023.697
-1028.879
-1033.096
-1032.381
-1021.984
-1007.251
-991.765
-980.84
-981.758
-988.185
-994.759
-997.833
-991.335
-979.725
-967.523
-955.795
-947.326
-940.617
-933.721
-927.096
-920.556
-914.306
-908.825
-903.909
-899.406
-895.444
-892.096
-889.388
-887.374
-886.113
-885.652
-886.062
-887.42
-889.73
-892.986
-897.212
-902.419
-908.613
-915.799
-923.962
-933.074
-943.117
-954.081
-965.921
-978.562
-991.927
-1005.926
-1020.488
-1035.586
-1051.149
-1067.049
-1083.236
-1099.728
-1116.516
-1133.608
-1150.927
-1168.251
-1185.45
-1202.56
-1219.338
-1235.176
-1249.86
-1263.438
-1275.739
-1287.181
-1296.674
-1300.991
-1300.684
-1298.565
-1299.253
-1311.546
-1334.917
-1360.358
-1378.93
-1377.963
-1356.518
-1326.555
-1297.396
-1279.175
-1273.795
-1272.264
-1269.038
-1260.299
-1244.87
-1226.578
-1207.183
-1186.46
-1164.714
-1141.875
-1117.833
-1092.888
-1067.204
-1040.071
-1012.495
-987.609
-964.507
-940.058
-909.146
-862.358
-800.475
-733.136
-669.99
-624.696
-598.34
-578.726
-556.608
-521.836
-473.064
-420.17
-369.38
-325.257
-289.49
-258.602
-231.166
-207.465
-187.43
-171.708
-160.427
-152.896
-148.706
-147.55
-148.905
-152.373
-157.626
-164.323
-172.148
-180.712
-189.586
-198.4
-206.898
-214.912
-222.311
-228.966
-234.752
-239.661
-243.799
-247.351
-250.495
-253.304
-255.812
-258.043
-260.087
-262.119
-264.165
-266.131
-268.193
-270.569
-273.041
-275.576
-278.171
-280.133
-282.884
-287.802
-292.573
-296.442
-295.377
-284.574
-269.246
-252.87
-240.642
-239.734
-243.856
-247.672
-247.534
-237.422
-221.738
-204.942
-188.056
-173.761
-160.501
-146.322
-131.715
-116.561
-101.101
-85.795
-70.368
-54.68
-39.02
-23.53
-8.133
7.449
23.572
40.292
57.168
73.638
89.504
104.461
117.953
129.02
136.328
139.144
137.733
132.912
125.407
116.232
106.693
98.341
93.28
92.99
97.883
107.626
121.418
137.695
154.385
169.609
181.23
187.538
187.5
180.496
166.715
147.546
125.194
101.436
77.819
55.597
35.731
19.254
6.653
-2.638
-10.025
-16.671
-23.287
-30.314
-37.977
-46.66
-56.707
-68.094
-80.118
-91.776
-102.707
-113.061
-122.893
-132.677
-141.371
-145.764
-146.442
-146.528
-150.767
-168.202
-198.681
-232.906
-261.836
-272.645
-263.862
-247.767
-233.878
-232.274
-245.268
-263.761
-282.013
-296.312
-305.301
-312.677
-320.235
-327.828
-335.649
-343.227
-350.468
-357.911
-365.693
-373.676
-381.844
-390.227
-398.851
-407.641
-416.375
-424.903
-433.353
-442.174
-451.828
-462.41
-473.527
-484.656
-495.612
-506.183
-515.806
-523.359
-527.476
-527.572
-524.312
-519.032
-512.595
-505.596
-498.813
-493.608
-491.825
-494.418
-500.68
-508.802
-517.377
-525.559
-532.662
-537.741
-539.322
-536.462
-529.534
-519.883
-508.68
-496.567
-483.851
-470.767
-457.917
-445.821
-434.43
-423.234
-411.74
-399.716
-387.176
-374.286
-361.077
-347.49
-333.558
-319.392
-305.128
-290.862
-276.614
-262.341
-248.015
-233.652
-219.289
-204.981
-190.77
-176.683
-162.746
-148.981
-135.414
-122.072
-108.981
-96.165
-83.642
-71.432
-59.554
-48.031
-36.884
-26.128
-15.769
-5.804
3.769
12.951
21.741
30.138
38.145
45.765
53.003
59.863
66.35
72.469
78.228
83.636
88.702
93.434
97.842
101.932
105.715
109.199
112.394
115.31
117.958
120.349
122.494
124.405
126.093
127.57
128.848
129.939
130.856
131.61
132.217
132.688
133.04
133.287
133.448
133.539
133.581
133.594
133.6
133.623
133.687
133.817
134.039
134.381
134.871
135.538
136.411
137.52
138.896
140.57
142.573
144.935
147.685
150.854
154.468
158.556
163.142
168.253
173.911
180.139
186.958
194.385
202.439
211.13
220.469
230.459
241.103
252.394
264.324
276.878
290.036
303.775
318.067
332.88
348.177
363.918
380.059
396.551
413.341
430.37
447.577
464.896
482.259
499.598
516.842
533.921
550.762
567.294
583.446
599.145
614.319
628.895
642.797
655.952
668.288
679.743
690.258
699.779
708.257
715.65
721.923
727.056
731.032
733.839
735.464
735.902
735.153
733.226
730.136
725.9
720.537
714.064
706.518
697.948
688.413
677.989
666.748
654.762
642.119
628.901
615.173
601.011
586.487
571.677
556.694
541.649
526.665
511.903
497.579
483.898
470.979
458.823
447.337
436.416
426.065
416.362
407.052
397.706
388.551
379.918
372.115
366.012
360.161
352.909
346.217
340.667
339.441
346.331
355.793
365.4
372.099
368.684
360.556
348.84
333.199
324.841
324.044
333.402
359.215
392.421
429.49
468.484
501.737
531.742
560.573
586.098
609.538
628.933
640.999
645.936
644.915
639.803
632.86
625.745
618.787
611.904
605.22
597.731
587.963
574.562
556.555
533.846
507.931
481.445
457.374
439.172
429.434
429.853
441.332
463.977
496.673
536.49
579.59
621.714
659.776
692.005
717.115
733.869
741.401
740.413
732.885
721.697
708.991
695.771
682.903
671.475
662.798
657.44
654.729
653.088
651.313
648.943
645.788
641.702
636.123
628.658
619.69
609.877
599.662
589.049
577.398
564.072
549.22
533.158
516.167
499.083
482.668
467.949
456.978
451.259
450.926
455.677
464.331
474.544
484.528
492.381
495.1
490.755
478.908
459.614
434.399
405.975
376.19
346.845
320.429
298.343
281.029
268.599
259.973
253.431
248.042
243.299
238.598
233.505
228.038
222.578
217.547
215.528
218.468
224.401
232.849
240.039
241.598
242.991
247.408
259.59
286.782
322.961
362.506
401.257
432.125
459.219
488.985
523.646
563.807
600.293
621.179
621.404
604.675
588.464
590.543
619.776
673.376
729.658
768.539
777.97
754.009
711.851
665.143
621.959
588.089
556.366
521.631
483.912
442.354
401.049
362.408
324.637
287.31
249.932
211.95
173.918
135.7
96.566
56.886
17.989
-18.772
-52.357
-82.556
-109.768
-134.02
-155.155
-173.363
-189.469
-204.601
-219.109
-232.049
-241.664
-246.525
-245.662
-238.236
-223.067
-198.78
-165.07
-123.222
-75.624
-24.354
29.066
83.214
136.428
186.639
232.24
272.804
308.697
339.926
366.176
387.099
402.479
412.707
418.238
419.023
414.753
405.315
390.861
371.831
348.783
322.058
292.062
259.418
224.966
189.747
154.61
120.13
86.73
54.708
24.316
-4.211
-30.785
-55.484
-78.391
-99.599
-119.179
-137.14
-153.595
-168.747
-182.875
-196.352
-209.454
-222.346
-235.156
-247.948
-260.758
-273.609
-286.44
-299.109
-311.492
-323.482
-334.992
-345.976
-356.345
-365.977
-374.743
-382.496
-389.136
-394.613
-398.893
-401.963
-403.837
-404.539
-404.129
-402.705
-400.349
-397.136
-393.133
-388.397
-383
-377.021
-370.538
-363.625
-356.351
-348.775
-340.957
-332.952
-324.809
-316.569
-308.266
-299.926
-291.577
-283.25
-274.973
-266.77
-258.666
-250.676
-242.816
-235.1
-227.535
-220.126
-212.871
-205.767
-198.81
-191.994
-185.311
-178.753
-172.311
-165.975
-159.739
-153.596
-147.54
-141.572
-135.691
-129.904
-124.22
-118.654
-113.219
-107.935
-102.826
-97.915
-93.233
-88.809
-84.678
-80.876
-77.443
-74.422
-71.857
-69.795
-68.286
-67.378
-67.124
-67.576
-68.786
-70.807
-73.689
-77.483
-82.236
-87.996
-94.805
-102.701
-111.717
-121.88
-133.21
-145.722
-159.416
-174.288
-190.317
-207.48
-225.744
-245.07
-265.409
-286.707
-308.907
-331.947
-355.764
-380.289
-405.439
-431.128
-457.259
-483.731
-510.433
-537.252
-564.065
-590.748
-617.171
-643.209
-668.744
-693.655
-717.816
-741.097
-763.352
-784.458
-804.321
-822.855
-839.994
-855.693
-869.928
-882.708
-894.084
-904.106
-912.823
-920.277
-926.493
-931.49
-935.28
-937.886
-939.344
-939.651
-938.755
-936.582
-933.03
-927.997
-921.386
-913.063
-902.849
-890.601
-876.223
-859.676
-840.999
-820.28
-797.666
-773.327
-747.45
-720.33
-692.357
-663.998
-635.809
-608.301
-581.923
-557.159
-534.522
-514.466
-497.381
-483.541
-473.065
-466.034
-462.467
-462.359
-465.701
-472.309
-481.856
-493.888
-507.806
-523.11
-539.417
-556.324
-573.408
-590.295
-606.623
-622.168
-636.9
-650.741
-663.571
-675.223
-685.447
-694.163
-701.452
-707.516
-712.647
-716.993
-720.538
-723.239
-725.063
-725.96
-725.898
-724.735
-722.143
-717.904
-711.935
-704.276
-695.086
-684.408
-672.125
-658.021
-641.905
-623.76
-603.724
-582.036
-558.947
-534.692
-509.485
-483.619
-457.497
-431.439
-405.641
-380.164
-354.986
-330.171
-305.907
-282.491
-260.133
-238.868
-218.616
-199.165
-180.252
-161.679
-143.265
-124.773
-105.953
-86.579
-66.476
-45.609
-23.996
-1.599
21.691
46.063
71.638
98.363
126.078
154.541
183.471
212.681
242.03
271.304
300.315
328.87
356.775
383.981
410.519
436.369
461.489
485.844
509.447
532.492
555.312
578.172
601.277
624.71
648.452
672.561
697.09
722.045
747.431
773.12
798.873
824.517
849.848
874.512
898.067
919.844
938.994
954.872
966.973
974.905
978.408
977.154
970.8
959.125
941.924
919.053
890.456
856.009
815.683
769.747
718.629
663.025
603.845
541.809
477.55
411.71
344.841
277.568
210.577
144.437
79.761
17.254
-42.408
-98.48
-150.323
-197.614
-240.173
-278.02
-311.36
-340.309
-364.996
-385.651
-402.468
-415.678
-425.599
-432.496
-436.729
-438.843
-439.368
-438.868
-437.838
-436.561
-435.255
-434.059
-433.005
-432.123
-431.408
-430.772
-430.157
-429.532
-428.805
-427.899
-426.669
-424.84
-422.181
-418.489
-413.602
-407.457
-400.02
-391.271
-381.256
-370.065
-357.801
-344.6
-330.577
-315.81
-300.407
-284.483
-268.177
-251.67
-235.108
-218.6
-202.242
-186.104
-170.24
-154.702
-139.509
-124.644
-110.099
-95.862
-81.926
-68.3
-54.98
-41.952
-29.197
-16.695
-4.43
7.605
19.421
31.028
42.436
53.652
64.678
75.51
86.149
96.603
106.882
116.998
126.961
136.779
146.463
156.027
165.481
174.832
184.088
193.254
202.336
211.34
220.273
229.141
237.948
246.699
255.397
264.047
272.655
281.225
289.761
298.269
306.755
315.228
323.695
332.165
340.645
349.145
357.675
366.243
374.862
383.54
392.289
401.12
410.043
419.071
428.215
437.485
446.891
456.443
466.151
476.024
486.068
496.289
506.691
517.277
528.046
538.997
550.125
561.422
572.878
584.481
596.213
608.056
619.988
631.983
644.012
656.042
668.039
679.964
691.775
703.427
714.871
726.058
736.932
747.437
757.515
767.104
776.141
784.563
792.304
799.3
805.484
810.793
815.162
818.528
820.833
822.017
822.027
820.811
818.322
814.517
809.359
802.813
794.854
785.458
774.61
762.3
748.523
733.283
716.589
698.455
678.906
657.97
635.683
612.088
587.236
561.181
533.986
505.721
476.458
446.278
415.266
383.51
351.103
318.141
284.722
250.948
216.92
182.74
148.512
114.337
80.315
46.545
13.122
-19.861
-52.314
-84.151
-115.293
-145.663
-175.188
-203.804
-231.449
-258.068
-283.614
-308.043
-331.318
-353.411
-374.296
-393.958
-412.385
-429.573
-445.523
-460.244
-473.749
-486.058
-497.194
-507.187
-516.069
-523.877
-530.649
-536.43
-541.26
-545.187
-548.255
-550.51
-551.998
-552.762
-552.847
-552.294
-551.141
-549.426
-547.182
-544.442
-541.232
-537.578
-533.502
-529.02
-524.148
-518.897
-513.274
-507.283
-500.924
-494.195
-487.088
-479.594
-471.699
-463.39
-454.647
-445.45
-435.778
-425.608
-414.918
-403.683
-391.881
-379.489
-366.487
-352.856
-338.58
-323.645
-308.041
-291.763
-274.808
-257.181
-238.888
-219.943
-200.364
-180.172
-159.398
-138.075
-116.24
-93.938
-71.219
-48.135
-24.747
-1.117
22.686
46.59
70.518
94.39
118.123
141.632
164.828
187.622
209.924
231.642
252.687
272.966
292.393
310.879
328.343
344.702
359.882
373.811
386.424
397.661
407.469
415.801
422.619
427.889
431.588
433.7
434.216
433.136
430.468
426.23
420.447
413.153
404.391
394.213
382.678
369.852
355.811
340.637
324.418
307.25
289.235
270.479
251.093
231.194
210.9
190.335
169.622
148.886
128.252
107.847
87.794
68.215
49.23
30.957
13.509
-3.005
-18.481
-32.82
-45.928
-57.72
-68.115
-77.043
-84.441
-90.252
-94.432
-96.944
-97.759
-96.861
-94.24
-89.899
-83.848
-76.108
-66.711
-55.696
-43.112
-29.019
-13.481
3.426
21.621
41.016
61.515
83.019
105.423
128.617
152.486
176.914
201.78
226.962
252.337
277.778
303.162
328.365
353.264
377.739
401.673
424.951
447.466
469.111
489.789
509.407
527.879
545.126
561.077
575.668
588.845
600.562
610.781
619.472
626.615
632.197
636.214
638.67
639.577
638.953
636.825
633.227
628.199
621.789
614.052
605.046
594.838
583.498
571.102
557.729
543.462
528.386
512.589
496.161
479.192
461.774
443.998
425.953
407.729
389.412
371.085
352.831
334.725
316.843
299.252
282.019
265.205
248.867
233.056
217.82
203.204
189.245
175.978
163.432
151.632
140.599
130.346
120.887
112.226
104.365
97.302
91.03
85.538
80.81
76.829
73.571
71.012
69.123
67.873
67.23
67.16
67.626
68.593
70.023
71.878
74.121
76.713
79.618
82.797
86.212
89.827
93.605
97.509
101.505
105.558
109.633
113.696
117.714
121.655
125.486
129.176
132.697
136.019
139.116
141.967
144.55
146.848
148.844
150.525
151.881
152.904
153.589
153.929
153.923
153.567
152.864
151.818
150.432
148.714
146.674
144.322
141.673
138.742
135.545
132.1
128.427
124.545
120.477
116.251
111.894
107.441
102.927
98.391
93.872
89.411
85.048
80.818
76.756
72.893
69.253
65.861
62.744
59.927
57.44
55.318
53.592
52.297
51.469
51.137
51.338
52.099
53.427
55.332
57.822
60.907
64.615
68.961
73.932
79.507
85.65
92.309
99.432
106.943
114.709
122.604
130.496
138.262
145.85
153.222
160.322
167.097
173.484
179.46
185.099
190.512
195.774
200.973
206.183
211.498
217.163
223.408
230.409
238.302
247.088
256.728
267.227
278.591
290.747
303.503
316.47
329.145
341.141
352.076
361.582
369.258
374.482
376.673
375.403
370.346
361.32
348.188
330.72
308.668
281.998
250.884
215.765
177.269
135.881
92.087
46.434
-0.456
-47.725
-94.58
-140.448
-184.892
-227.549
-268.045
-305.873
-340.477
-371.556
-399.02
-422.987
-443.739
-461.452
-476.329
-488.699
-499.009
-507.873
-515.811
-523.135
-530.028
-536.666
-543.278
-550.203
-557.82
-566.318
-575.772
-586.175
-597.446
-609.562
-622.45
-635.92
-649.676
-663.349
-676.666
-689.488
-701.762
-713.428
-724.394
-734.528
-743.698
-751.866
-759.021
-765.152
-770.252
-774.296
-777.3
-779.349
-780.584
-781.159
-781.181
-780.704
-779.755
-778.357
-776.542
-774.338
-771.754
-768.772
-765.384
-761.599
-757.437
-752.926
-748.077
-742.881
-737.32
-731.377
-725.047
-718.33
-711.231
-703.754
-695.912
-687.722
-679.213
-670.419
-661.369
-652.088
-642.596
-632.915
-623.066
-613.073
-602.959
-592.746
-582.457
-572.119
-561.76
-551.41
-541.097
-530.848
-520.688
-510.644
-500.74
-490.997
-481.436
-472.077
-462.938
-454.036
-445.388
-437.007
-428.906
-421.095
-413.582
-406.373
-399.471
-392.876
-386.585
-380.592
-374.89
-369.47
-364.321
-359.43
-354.78
-350.356
-346.139
-342.108
-338.242
-334.515
-330.903
-327.379
-323.915
-320.483
-317.058
-313.61
-310.115
-306.547
-302.883
-299.103
-295.185
-291.114
-286.873
-282.449
-277.834
-273.02
-268.003
-262.782
-257.359
-251.74
-245.933
-239.951
-233.808
-227.524
-221.119
-214.617
-208.046
-201.435
-194.818
-188.228
-181.703
-175.28
-169.001
-162.906
-157.037
-151.435
-146.143
-141.201
-136.647
-132.52
-128.856
-125.685
-123.039
-120.944
-119.421
-118.49
-118.165
-118.458
-119.374
-120.915
-123.08
-125.86
-129.246
-133.222
-137.769
-142.863
-148.477
-154.581
-161.138
-168.112
-175.462
-183.143
-191.11
-199.313
-207.702
-216.225
-224.829
-233.461
-242.067
-250.595
-258.993
-267.21
-275.2
-282.915
-290.315
-297.359
-304.011
-310.241
-316.02
-321.324
-326.135
-330.436
-334.216
-337.469
-340.19
-342.381
-344.045
-345.19
-345.828
-345.971
-345.636
-344.844
-343.616
-341.975
-339.949
-337.565
-334.853
-331.844
-328.569
-325.06
-321.349
-317.469
-313.451
-309.326
-305.122
-300.867
-296.586
-292.304
-288.04
-283.814
-279.64
-275.533
-271.503
-267.559
-263.705
-259.945
-256.281
-252.712
-249.236
-245.85
-242.548
-239.326
-236.175
-233.089
-230.058
-227.076
-224.131
-221.215
-218.318
-215.43
-212.542
-209.645
-206.729
-203.786
-200.808
-197.79
-194.724
-191.607
-188.435
-185.206
-181.918
-178.574
-175.174
-171.723
-168.224
-164.682
-161.105
-157.499
-153.871
-150.23
-146.582
-142.936
-139.298
-135.676
-132.075
-128.501
-124.959
-121.454
-117.988
-114.565
-111.186
-107.852
-104.564
-101.32
-98.119
-94.958
-91.834
-88.743
-85.679
-82.636
-79.607
-76.586
-73.563
-70.53
-67.476
-64.392
-61.267
-58.089
-54.848
-51.534
-48.135
-44.641
-41.045
-37.336
-33.507
-29.552
-25.465
-21.241
-16.877
-12.37
-7.719
-2.924
2.014
7.093
12.308
17.656
23.129
28.72
34.421
40.221
46.11
52.076
58.106
64.184
70.295
76.423
82.55
88.657
94.724
100.731
106.657
112.479
118.177
123.727
129.107
134.294
139.264
143.996
148.465
152.647
156.52
160.059
163.241
166.044
168.443
170.418
171.946
173.005
173.575
173.636
173.169
172.156
170.58
168.424
165.676
162.32
158.347
153.747
148.511
142.635
136.114
128.947
121.134
112.677
103.58
93.851
83.497
72.531
60.966
48.819
36.108
22.856
9.086
-5.175
-19.897
-35.048
-50.594
-66.499
-82.724
-99.227
-115.967
-132.899
-149.977
-167.153
-184.38
-201.607
-218.784
-235.863
-252.793
-269.523
-286.005
-302.191
-318.032
-333.483
-348.497
-363.032
-377.047
-390.501
-403.357
-415.582
-427.142
-438.01
-448.16
-457.568
-466.217
-474.091
-481.177
-487.467
-492.957
-497.645
-501.534
-504.631
-506.944
-508.487
-509.277
-509.332
-508.676
-507.334
-505.332
-502.7
-499.469
-495.673
-491.344
-486.519
-481.232
-475.521
-469.422
-462.971
-456.204
-449.158
-441.866
-434.364
-426.683
-418.854
-410.909
-402.874
-394.775
-386.637
-378.482
-370.33
-362.198
-354.1
-346.051
-338.058
-330.131
-322.273
-314.486
-306.771
-299.124
-291.541
-284.016
-276.539
-269.099
-261.686
-254.285
-246.884
-239.465
-232.014
-224.513
-216.947
-209.297
-201.547
-193.679
-185.677
-177.522
-169.199
-160.691
-151.981
-143.053
-133.893
-124.486
-114.818
-104.875
-94.646
-84.119
-73.283
-62.131
-50.654
-38.846
-26.702
-14.219
-1.394
11.773
25.281
39.127
53.308
67.821
82.658
97.813
113.279
129.047
145.111
161.458
178.071
194.932
212.023
229.323
246.821
264.499
282.33
300.302
318.424
336.69
355.096
373.625
392.201
410.755
429.255
447.599
465.63
483.254
500.387
516.98
533.154
549.042
564.633
580.138
596.089
612.52
629.09
645.81
661.968
677.851
696.153
716.337
735.527
749.488
748.27
729.168
700.003
671.636
664.866
692.366
748.016
819.223
878.244
900.711
882.679
828.677
762.324
711.327
687.781
697.185
727.697
758.91
780.056
783.681
772.241
755.729
738.864
724.738
713.836
703.07
691.616
679.782
667.522
655.428
643.61
631.622
619.32
606.705
593.727
580.403
566.823
553.055
539.182
525.318
511.523
497.809
484.211
470.766
457.499
444.441
431.621
419.057
406.777
394.813
383.193
371.94
361.08
350.633
340.621
331.062
321.974
313.373
305.273
297.686
290.624
284.093
278.1
272.65
267.745
263.385
259.567
256.288
253.541
251.318
249.609
248.403
247.688
247.449
247.669
248.331
249.415
250.901
252.764
254.978
257.514
260.34
263.423
266.734
270.239
273.905
277.693
281.567
285.489
289.422
293.329
297.172
300.909
304.502
307.916
311.12
314.085
316.785
319.186
321.256
322.97
324.287
325.175
325.614
325.579
325.07
324.105
322.665
320.731
318.381
315.679
312.676
309.441
305.94
302.133
298.146
294.146
290.023
285.573
280.928
276.083
271.037
266.381
260.789
252.88
244.526
236.425
232.559
237.592
246.975
257.47
263.709
258.837
248.99
238.862
231.39
231.786
234.954
236.604
236.712
233.001
226.995
221.563
217.428
215.901
218.706
226.105
237.853
254.52
275.985
300.847
327.514
354.362
379.28
401.246
419.884
433.951
443.066
448.297
451.223
453.412
456.327
460.681
466.965
476.308
489.242
505.205
523.014
541.494
559.854
577.75
594.949
610.867
625.068
637.607
648.917
659.447
669.402
678.766
687.413
695.346
702.645
709.307
715.253
720.383
724.648
728.076
730.763
732.788
734.188
734.984
735.185
734.812
733.905
732.5
730.627
728.316
725.594
722.494
719.051
715.302
711.28
707.018
702.543
697.883
693.068
688.136
683.125
678.075
673.017
667.98
662.989
658.069
653.244
648.533
643.952
639.513
635.228
631.106
627.152
623.372
619.766
616.333
613.065
609.956
606.997
604.176
601.48
598.896
596.406
593.992
591.635
589.316
587.012
584.7
582.357
579.959
577.48
574.896
572.183
569.315
566.27
563.023
559.553
555.839
551.859
547.596
543.032
538.151
532.937
527.379
521.465
515.186
508.535
501.506
494.096
486.304
478.13
469.576
460.646
451.345
441.681
431.661
421.297
410.6
399.583
388.263
376.654
364.776
352.646
340.284
327.712
314.952
302.026
288.957
275.769
262.488
249.138
235.746
222.338
208.939
195.577
182.278
169.069
155.974
143.019
130.229
117.625
105.231
93.068
81.154
69.51
58.151
47.095
36.354
25.942
15.869
6.144
-3.226
-12.237
-20.886
-29.171
-37.094
-44.659
-51.871
-58.737
-65.268
-71.474
-77.37
-82.972
-88.299
-93.372
-98.214
-102.85
-107.305
-111.607
-115.785
-119.868
-123.888
-127.873
-131.855
-135.864
-139.931
-144.086
-148.358
-152.776
-157.366
-162.153
-167.16
-172.408
-177.916
-183.703
-189.783
-196.169
-202.871
-209.898
-217.257
-224.95
-232.977
-241.331
-250.004
-258.985
-268.264
-277.83
-287.668
-297.758
-308.079
-318.606
-329.316
-340.182
-351.172
-362.247
-373.365
-384.489
-395.585
-406.626
-417.585
-428.428
-439.112
-449.587
-459.811
-469.743
-479.347
-488.587
-497.42
-505.815
-513.749
-521.217
-528.222
-534.759
-540.814
-546.353
-551.336
-555.752
-559.622
-563.007
-565.983
-568.585
-570.794
-572.571
-573.902
-574.808
-575.352
-575.504
-575.102
-574.11
-572.729
-571.422
-570.699
-570.699
-571.038
-571.216
-571.084
-570.44
-568.724
-564.797
-557.257
-545.545
-530.418
-513.313
-495.169
-476.653
-458.619
-442.54
-430.396
-423.199
-420.201
-419.53
-419.721
-419.902
-419.367
-417.127
-411.626
-401.902
-388.367
-372.443
-355.365
-337.809
-320.094
-302.471
-285.58
-269.958
-255.543
-241.792
-228.18
-214.458
-200.639
-186.887
-173.224
-159.581
-145.983
-132.537
-119.377
-106.594
-94.197
-82.127
-70.348
-58.864
-47.704
-36.912
-26.522
-16.55
-7.007
2.094
10.744
18.929
26.639
33.867
40.611
46.87
52.642
57.924
62.713
67.013
70.837
74.208
77.147
79.673
81.803
83.554
84.944
85.992
86.717
87.137
87.267
87.125
86.726
86.087
85.225
84.152
82.882
81.422
79.781
77.967
75.983
73.835
71.522
69.044
66.4
63.585
60.593
57.418
54.051
50.482
46.701
42.696
38.457
33.973
29.233
24.227
18.947
13.387
7.54
1.405
-5.021
-11.735
-18.735
-26.014
-33.565
-41.375
-49.434
-57.724
-66.228
-74.926
-83.795
-92.81
-101.944
-111.167
-120.449
-129.756
-139.054
-148.307
-157.478
-166.528
-175.419
-184.112
-192.568
-200.747
-208.614
-216.129
-223.26
-229.973
-236.238
-242.027
-247.315
-252.083
-256.312
-259.988
-263.102
-265.647
-267.621
-269.026
-269.868
-270.156
-269.906
-269.134
-267.862
-266.115
-263.922
-261.314
-258.326
-254.995
-251.361
-247.467
-243.358
-239.079
-234.679
-230.206
-225.709
-221.24
-216.847
-212.579
-208.486
-204.613
-201.008
-197.711
-194.765
-192.207
-190.074
-188.396
-187.202
-186.516
-186.36
-186.75
-187.698
-189.212
-191.296
-193.95
-197.169
-200.945
-205.264
-210.109
-215.461
-221.295
-227.583
-234.293
-241.392
-248.842
-256.603
-264.631
-272.884
-281.314
-289.873
-298.513
-307.184
-315.835
-324.416
-332.876
-341.165
-349.231
-357.026
-364.502
-371.613
-378.313
-384.561
-390.314
-395.536
-400.192
-404.247
-407.673
-410.442
-412.531
-413.918
-414.586
-414.521
-413.711
-412.149
-409.83
-406.753
-402.92
-398.336
-393.009
-386.949
-380.17
-372.686
-364.517
-355.682
-346.204
-336.108
-325.422
-314.175
-302.397
-290.121
-277.382
-264.214
-250.654
-236.74
-222.511
-208.004
-193.261
-178.321
-163.225
-148.015
-132.731
-117.414
-102.104
-86.842
-71.667
-56.617
-41.73
-27.044
-12.594
1.586
15.459
28.994
42.158
54.92
67.249
79.115
90.492
101.353
111.672
121.425
130.591
139.146
147.073
154.353
160.968
166.903
172.146
176.683
180.505
183.604
185.972
187.604
188.498
188.65
188.059
186.727
184.654
181.843
178.298
174.024
169.025
163.308
156.882
149.754
141.934
133.433
124.264
114.438
103.971
92.877
81.173
68.878
56.01
42.59
28.64
14.183
-0.756
-16.153
-31.98
-48.21
-64.814
-81.763
-99.026
-116.572
-134.368
-152.381
-170.577
-188.919
-207.371
-225.895
-244.45
-262.997
-281.494
-299.897
-318.162
-336.243
-354.096
-371.671
-388.924
-405.806
-422.269
-438.268
-453.756
-468.687
-483.019
-496.708
-509.713
-521.996
-533.52
-544.251
-554.156
-563.207
-571.376
-578.642
-584.982
-590.382
-594.826
-598.307
-600.817
-602.356
-602.925
-602.533
-601.191
-598.915
-595.726
-591.653
-586.725
-580.98
-574.458
-567.206
-559.273
-550.714
-541.586
-531.95
-521.871
-511.416
-500.652
-489.651
-478.485
-467.226
-455.947
-444.723
-433.626
-422.728
-412.101
-401.814
-391.937
-382.534
-373.67
-365.405
-357.797
-350.901
-344.767
-339.442
-334.966
-331.377
-328.705
-326.977
-326.213
-326.427
-327.628
-329.818
-332.994
-337.148
-342.265
-348.327
-355.31
-363.184
-371.916
-381.469
-391.802
-402.87
-414.626
-427.02
-440.001
-453.514
-467.504
-481.915
-496.689
-511.768
-527.093
-542.608
-558.254
-573.973
-589.711
-605.412
-621.026
-636.502
-651.793
-666.855
-681.648
-696.133
-710.278
-724.052
-737.427
-750.383
-762.898
-774.959
-786.553
-797.672
-808.312
-818.471
-828.151
-837.355
-846.091
-854.367
-862.194
-869.585
-876.554
-883.117
-889.292
-895.096
-900.549
-905.671
-910.484
-915.007
-919.261
-923.267
-927.046
-930.615
-933.994
-937.199
-940.246
-943.15
-945.923
-948.576
-951.12
-953.562
-955.908
-958.162
-960.327
-962.404
-964.392
-966.287
-968.088
-969.789
-971.385
-972.868
-974.232
-975.469
-976.569
-977.525
-978.327
-978.964
-979.426
-979.703
-979.785
-979.662
-979.324
-978.762
-977.966
-976.928
-975.64
-974.095
-972.286
-970.208
-967.853
-965.217
-962.295
-959.084
-955.58
-951.78
-947.681
-943.28
-938.576
-933.567
-928.249
-922.62
-916.676
-910.415
-903.832
-896.923
-889.683
-882.105
-874.185
-865.915
-857.289
-848.298
-838.934
-829.188
-819.05
-808.509
-797.556
-786.178
-774.365
-762.106
-749.389
-736.203
-722.538
-708.385
-693.734
-678.577
-662.907
-646.718
-630.005
-612.767
-595.001
-576.71
-557.897
-538.568
-518.73
-498.395
-477.576
-456.288
-434.549
-412.38
-389.802
-366.842
-343.527
-319.885
-295.948
-271.749
-247.324
-222.709
-197.941
-173.06
-148.105
-123.115
-98.131
-73.191
-48.334
-23.6
0.975
25.356
49.508
73.399
96.999
120.282
143.222
165.8
187.998
209.8
231.197
252.181
272.749
292.901
312.641
331.975
350.913
369.47
387.661
405.508
423.031
440.257
457.212
473.925
490.427
506.75
522.925
538.985
554.964
570.891
586.8
602.719
618.678
634.703
650.82
667.051
683.415
699.928
716.604
733.451
750.475
767.678
785.057
802.605
820.312
838.164
856.143
874.227
892.389
910.602
928.833
947.047
965.205
983.269
1001.195
1018.939
1036.458
1053.707
1070.639
1087.212
1103.381
1119.103
1134.339
1149.05
1163.199
1176.752
1189.68
1201.954
1213.553
1224.457
1234.65
1244.123
1252.869
1260.888
1268.182
1274.76
1280.635
1285.823
1290.347
1294.231
1297.505
1300.204
1302.365
1304.029
1305.24
1306.044
1306.489
1306.625
1306.503
1306.174
1305.689
1305.098
1304.451
1303.795
1303.177
1302.641
1302.226
1301.97
1301.904
1302.059
1302.458
1303.123
1304.07
1305.31
1306.85
1308.693
1310.836
1313.274
1315.993
1318.975
1322.193
1325.62
1329.225
1332.979
1336.846
1340.79
1344.766
1348.73
1352.638
1356.441
1360.088
1363.521
1366.68
1369.507
1371.95
1373.965
1375.516
1376.562
1377.057
1376.952
1376.194
1374.74
1372.558
1369.614
1365.878
1361.33
1355.96
1349.779
1342.82
1335.108
1326.668
1317.51
1307.623
1297.03
1285.784
1273.978
1261.759
1249.229
1236.441
1223.438
1210.23
1196.863
1183.469
1170.063
1156.538
1142.958
1129.477
1116.51
1104.813
1094.693
1085.942
1078.295
1071.371
1064.647
1057.693
1049.414
1037.968
1022.57
1003.491
981.592
958.496
935.611
913.811
894.796
881.056
873.799
873.053
877.75
885.515
894.564
903.953
912.17
917.304
918.278
914.708
907.242
897.697
887.259
876.397
865.729
855.83
847.067
839.693
833.419
827.397
821.122
814.421
807.189
799.492
791.327
782.596
773.328
763.66
753.664
743.369
732.755
721.734
710.273
698.393
686.124
673.523
660.634
647.486
634.113
620.552
606.843
593.038
579.188
565.348
551.571
537.911
524.423
511.167
498.19
485.534
473.232
461.302
449.767
438.649
427.967
417.75
408.022
398.804
390.112
381.951
374.332
367.273
360.794
354.911
349.627
344.929
340.799
337.222
334.185
331.673
329.668
328.132
327.031
326.336
326.038
326.135
326.586
327.304
328.138
328.922
329.573
330.097
330.554
331.042
331.612
332.243
333.03
334.171
335.68
337.463
339.136
340.009
339.841
338.929
337.669
336.509
335.994
336.479
338.833
344.812
355.285
370.142
388.792
409.834
431.875
454.066
474.816
491.113
500.695
502.136
494.647
479.24
457.144
429.372
398.087
366.942
339.631
319.455
309.133
309.427
320.445
341.812
371.844
407.649
445.585
482.309
515.057
542.202
562.919
576.815
584.16
586.018
584.121
579.755
573.692
566.219
557.083
546.172
533.472
518.642
501.181
480.853
457.687
432.015
404.364
375.063
344.302
312.299
279.287
245.587
211.55
177.463
143.598
110.144
77.21
44.918
13.312
-17.661
-48.14
-78.366
-108.54
-138.736
-168.959
-199.167
-229.304
-259.364
-289.341
-319.206
-348.979
-378.665
-408.25
-437.745
-467.109
-496.249
-525.038
-553.297
-580.86
-607.623
-633.514
-658.488
-682.52
-705.588
-727.685
-748.833
-769.038
-788.292
-806.585
-823.899
-840.228
-855.588
-870.001
-883.502
-896.132
-907.922
-918.903
-929.106
-938.556
-947.275
-955.282
-962.586
-969.201
-975.15
-980.457
-985.154
-989.271
-992.836
-995.881
-998.438
-1000.539
-1002.211
-1003.481
-1004.374
-1004.915
-1005.13
-1005.045
-1004.685
-1004.076
-1003.243
-1002.208
-1000.998
-999.634
-998.139
-996.533
-994.833
-993.058
-991.225
-989.352
-987.452
-985.533
-983.603
-981.665
-979.719
-977.762
-975.784
-973.766
-971.692
-969.544
-967.303
-964.946
-962.452
-959.795
-956.954
-953.907
-950.623
-947.067
-943.201
-938.981
-934.362
-929.296
-923.73
-917.605
-910.868
-903.466
-895.352
-886.484
-876.81
-866.271
-854.804
-842.341
-828.833
-814.251
-798.559
-781.723
-763.734
-744.615
-724.435
-703.311
-681.318
-658.495
-634.867
-610.439
-585.24
-559.313
-532.677
-505.323
-477.253
-448.478
-419.076
-389.219
-358.987
-328.353
-297.19
-265.23
-232.316
-198.527
-163.915
-128.456
-92.294
-55.675
-19.091
16.452
50.091
81.594
110.895
138.16
164.031
188.93
213.584
239.706
268.805
301.397
337.444
375.786
413.989
450.124
481.788
505.148
516.952
515.045
498.279
467.821
426.954
378.669
326.89
277.129
233.916
201.021
181.136
174.241
178.337
191.309
209.901
229.695
247.29
259.604
264.293
260.946
250.147
232.725
210.335
185.104
158.5
131.873
106.239
81.795
58.588
36.552
15.287
-5.669
-26.52
-47.39
-68.288
-89.045
-109.583
-129.841
-149.702
-169.071
-187.898
-206.177
-223.942
-241.246
-258.111
-274.535
-290.513
-306.045
-321.132
-335.769
-349.943
-363.628
-376.786
-389.38
-401.368
-412.699
-423.326
-433.21
-442.311
-450.606
-458.078
-464.717
-470.524
-475.507
-479.672
-483.023
-485.568
-487.315
-488.275
-488.466
-487.908
-486.623
-484.638
-481.983
-478.694
-474.809
-470.369
-465.414
-459.991
-454.144
-447.925
-441.385
-434.58
-427.566
-420.403
-413.15
-405.868
-398.618
-391.463
-384.459
-377.665
-371.135
-364.921
-359.073
-353.637
-348.657
-344.173
-340.221
-336.838
-334.054
-331.897
-330.391
-329.555
-329.407
-329.959
-331.219
-333.192
-335.878
-339.275
-343.376
-348.17
-353.643
-359.779
-366.554
-373.946
-381.925
-390.461
-399.52
-409.067
-419.064
-429.47
-440.244
-451.346
-462.73
-474.355
-486.174
-498.144
-510.22
-522.356
-534.508
-546.631
-558.681
-570.614
-582.386
-593.956
-605.282
-616.323
-627.041
-637.397
-647.354
-656.876
-665.932
-674.488
-682.515
-689.987
-696.879
-703.167
-708.834
-713.861
-718.235
-721.944
-724.978
-727.333
-729.004
-729.991
-730.298
-729.93
-728.897
-727.211
-724.889
-721.948
-718.414
-714.31
-709.669
-704.521
-698.905
-692.86
-686.43
-679.659
-672.599
-665.3
-657.817
-650.206
-642.523
-634.828
-627.18
-619.639
-612.263
-605.112
-598.245
-591.718
-585.587
-579.906
-574.726
-570.097
-566.063
-562.668
-559.949
-557.939
-556.669
-556.162
-556.437
-557.506
-559.377
-562.049
-565.516
-569.765
-574.775
-580.519
-586.962
-594.063
-601.772
-610.034
-618.789
-627.967
-637.496
-647.299
-657.294
-667.393
-677.508
-687.546
-697.413
-707.011
-716.244
-725.013
-733.22
-740.767
-747.558
-753.5
-758.499
-762.469
-765.324
-766.984
-767.374
-766.425
-764.073
-760.261
-754.942
-748.073
-739.622
-729.565
-717.886
-704.58
-689.65
-673.107
-654.973
-635.277
-614.057
-591.36
-567.238
-541.753
-514.972
-486.969
-457.824
-427.622
-396.452
-364.407
-331.584
-298.083
-264.004
-229.453
-194.531
-159.345
-123.999
-88.596
-53.237
-18.021
16.954
51.597
85.819
119.538
152.675
185.16
216.926
247.916
278.078
307.368
335.748
363.19
389.671
415.177
439.699
463.237
485.797
507.39
528.033
547.748
566.561
584.505
601.614
617.925
633.481
648.326
662.508
676.073
689.073
701.559
713.579
725.185
736.425
747.346
757.993
768.411
778.638
788.712
798.667
808.536
818.345
828.116
837.866
847.608
857.348
867.089
876.828
886.556
896.26
905.924
915.531
925.058
934.484
943.781
952.922
961.878
970.618
979.107
987.312
995.197
1002.726
1009.864
1016.58
1022.842
1028.624
1033.899
1038.643
1042.837
1046.462
1049.501
1051.941
1053.768
1054.974
1055.557
1055.52
1054.868
1053.613
1051.771
1049.366
1046.428
1042.992
1039.093
1034.764
1030.043
1024.971
1019.587
1013.93
1008.032
1001.922
995.636
989.214
982.7
976.142
969.587
963.084
956.681
950.426
944.359
938.516
932.915
927.556
922.451
917.617
913.092
908.935
905.188
901.876
899.014
896.591
894.562
892.857
891.345
889.868
888.305
886.54
884.509
882.22
879.659
876.826
873.689
870.108
865.96
861.16
855.63
849.384
842.517
835.127
827.468
819.947
812.742
805.91
799.295
792.365
784.642
775.802
765.548
753.791
741.067
728.348
716.863
708.091
703.062
702.191
705.395
711.957
719.878
725.968
726.87
719.426
701.268
671.139
628.364
572.904
506.666
433.571
357.996
284.003
214.83
152.706
99.827
58.22
28.077
7.571
-5.959
-14.846
-20.563
-24.047
-26.546
-29.571
-33.724
-38.297
-41.854
-43.416
-42.854
-40.411
-36.302
-30.423
-22.788
-14.074
-5.351
2.561
9.25
14.679
19.031
22.303
24.389
25.39
25.53
25.118
24.497
23.795
22.999
22.138
21.269
20.508
19.987
19.729
19.678
19.785
19.985
20.235
20.503
20.688
20.662
20.289
19.414
17.951
15.863
13.119
9.697
5.581
0.755
-4.759
-10.905
-17.639
-24.926
-32.732
-41.024
-49.744
-58.821
-68.181
-77.75
-87.461
-97.251
-107.057
-116.818
-126.481
-135.997
-145.322
-154.419
-163.247
-171.76
-179.914
-187.664
-194.969
-201.794
-208.105
-213.871
-219.071
-223.687
-227.71
-231.137
-233.965
-236.195
-237.833
-238.885
-239.362
-239.277
-238.649
-237.5
-235.857
-233.749
-231.21
-228.276
-224.984
-221.372
-217.477
-213.337
-208.988
-204.468
-199.812
-195.058
-190.243
-185.405
-180.582
-175.808
-171.119
-166.544
-162.11
-157.84
-153.75
-149.854
-146.159
-142.665
-139.373
-136.285
-133.4
-130.717
-128.234
-125.946
-123.843
-121.92
-120.166
-118.557
-117.068
-115.661
-114.297
-112.947
-111.582
-110.172
-108.696
-107.126
-105.447
-103.663
-101.764
-99.734
-97.551
-95.157
-92.508
-89.599
-86.436
-83.044
-79.493
-75.834
-72.131
-68.497
-65.014
-61.734
-58.693
-55.835
-53.103
-50.478
-47.961
-45.636
-43.595
-41.866
-40.485
-39.443
-38.637
-38.008
-37.463
-36.807
-35.941
-34.723
-33.021
-31.135
-29.411
-28.142
-27.687
-27.952
-28.693
-30.205
-32.758
-36.072
-40.138
-44.684
-49.291
-54.93
-62.643
-72.604
-85.155
-100.755
-119.336
-141.497
-167.94
-197.561
-229.283
-262.588
-296.585
-330.72
-364.685
-397.408
-427.823
-456.05
-482.119
-505.859
-527.312
-546.154
-562.191
-575.731
-587.073
-596.168
-603.015
-607.752
-610.577
-611.857
-611.891
-610.832
-608.808
-606.06
-602.897
-599.589
-596.423
-593.644
-591.36
-589.677
-588.691
-588.368
-588.639
-589.372
-590.31
-591.266
-592.161
-592.918
-593.514
-593.948
-594.162
-594.131
-593.851
-593.261
-592.326
-591.029
-589.332
-587.258
-584.868
-582.239
-579.505
-576.785
-574.137
-571.604
-569.2
-566.911
-564.731
-562.635
-560.57
-558.506
-556.422
-554.295
-552.113
-549.857
-547.485
-544.956
-542.22
-539.222
-535.919
-532.274
-528.254
-523.838
-519.01
-513.763
-508.104
-502.04
-495.574
-488.711
-481.457
-473.816
-465.802
-457.427
-448.707
-439.662
-430.321
-420.713
-410.876
-400.85
-390.677
-380.401
-370.068
-359.724
-349.417
-339.195
-329.105
-319.194
-309.511
-300.101
-291.007
-282.273
-273.935
-266.029
-258.585
-251.628
-245.179
-239.251
-233.856
-228.995
-224.67
-220.874
-217.598
-214.826
-212.539
-210.713
-209.318
-208.321
-207.684
-207.361
-207.304
-207.462
-207.777
-208.191
-208.64
-209.06
-209.384
-209.543
-209.467
-209.086
-208.33
-207.128
-205.414
-203.118
-200.179
-196.534
-192.128
-186.907
-180.823
-173.834
-165.902
-156.995
-147.087
-136.158
-124.194
-111.187
-97.135
-82.043
-65.923
-48.792
-30.674
-11.598
8.399
29.276
50.985
73.475
96.686
120.557
145.02
170.002
195.428
221.219
247.292
273.563
299.944
326.348
352.685
378.868
404.807
430.414
455.604
480.293
504.399
527.844
550.554
572.457
593.489
613.587
632.694
650.761
667.742
683.595
698.289
711.793
724.085
735.149
744.974
753.555
760.894
766.997
771.877
775.552
778.047
779.39
779.615
778.761
776.872
773.993
770.175
765.472
759.94
753.637
746.623
738.959
730.707
721.928
712.684
703.035
693.038
682.749
672.224
661.511
650.659
639.711
628.709
617.688
606.68
595.713
584.812
573.995
563.278
552.67
542.177
531.801
521.54
511.386
501.328
491.354
481.443
471.576
461.727
451.869
441.973
432.007
421.937
411.728
401.345
390.753
379.915
368.797
357.366
345.591
333.442
320.893
307.92
294.504
280.628
266.279
251.449
236.132
220.328
204.041
187.279
170.052
152.378
134.276
115.768
96.881
77.646
58.095
38.262
18.187
-2.09
-22.525
-43.075
-63.693
-84.331
-104.942
-125.476
-145.885
-166.122
-186.141
-205.895
-225.344
-244.446
-263.165
-281.469
-299.326
-316.712
-333.606
-349.987
-365.845
-381.168
-395.952
-410.197
-423.904
-437.081
-449.738
-461.889
-473.551
-484.743
-495.487
-505.806
-515.726
-525.277
-534.487
-543.388
-552.013
-560.393
-568.562
-576.553
-584.396
-592.122
-599.755
-607.321
-614.84
-622.326
-629.793
-637.242
-644.677
-652.096
-659.491
-666.854
-674.172
-681.425
-688.593
-695.653
-702.578
-709.335
-715.889
-722.199
-728.223
-733.916
-739.229
-744.112
-748.505
-752.343
-755.564
-758.104
-759.896
-760.868
-760.945
-760.044
-758.101
-755.071
-750.911
-745.594
-739.102
-731.437
-722.64
-712.789
-701.962
-690.244
-677.709
-664.412
-650.441
-635.893
-620.867
-605.47
-589.763
-573.766
-557.514
-541.07
-524.432
-507.515
-490.135
-471.973
-452.753
-432.339
-410.591
-387.332
-362.532
-336.273
-308.787
-280.669
-252.485
-224.355
-196.387
-168.663
-140.782
-112.447
-83.268
-52.165
-18.549
16.963
53.433
89.285
121.84
148.901
168.156
176.274
171.127
152.336
120.277
76.86
25.319
-31.902
-92.258
-152.251
-209.46
-262.502
-310.498
-354.004
-394.234
-431.456
-465.666
-497.079
-525.451
-550.54
-572.157
-589.504
-601.702
-608.433
-609.728
-605.956
-597.727
-585.488
-569.596
-550.564
-529.011
-505.629
-481.179
-456.277
-431.367
-406.842
-383.031
-360.242
-338.728
-318.614
-299.879
-282.398
-266.048
-250.758
-236.495
-223.19
-210.707
-198.824
-187.249
-175.768
-164.251
-152.599
-140.763
-128.702
-116.391
-103.88
-91.291
-78.766
-66.435
-54.396
-42.715
-31.482
-20.815
-10.85
-1.745
6.391
13.491
19.499
24.384
28.126
30.717
32.188
32.603
32.023
30.504
28.093
24.831
20.768
15.968
10.497
4.43
-2.17
-9.243
-16.728
-24.562
-32.685
-41.036
-49.565
-58.228
-66.978
-75.766
-84.536
-93.226
-101.772
-110.115
-118.201
-125.985
-133.42
-140.463
-147.069
-153.195
-158.802
-163.855
-168.315
-172.143
-175.295
-177.722
-179.392
-180.277
-180.367
-179.678
-178.171
-175.755
-172.347
-167.846
-162.227
-155.571
-147.887
-139.111
-129.273
-118.417
-106.668
-94.332
-81.365
-67.358
-52.043
-35.221
-16.786
3.157
24.45
47.107
70.838
94.458
118.3
144.327
171.705
198.892
221.748
231.502
229.55
225.336
228.692
253.938
301.609
358.156
413.375
456.604
485.666
509.205
531.865
555.942
582.227
608.129
632.783
656.908
680.737
704.639
728.925
753.739
779.052
804.585
829.967
854.756
879.052
903.313
927.46
951.441
975.289
998.458
1022.304
1048.177
1074.058
1099.181
1119.919
1132.014
1140.106
1147.318
1158.27
1179.277
1204.748
1230.003
1251.88
1265.084
1273.509
1281.103
1288.827
1299.223
1311.174
1323.135
1335.573
1348.288
1361.342
1375.028
1389.054
1403.18
1417.339
1431.27
1444.65
1457.163
1468.561
1478.661
1487.126
1493.458
1497.089
1497.477
1494.319
1487.673
1477.547
1463.72
1446.362
1425.924
1402.49
1376.307
1347.857
1316.613
1283.881
1253.325
1224.375
1194.845
1160.766
1112.108
1049.371
983.679
925.053
890.395
883.824
888.812
893.17
881.831
847.497
804.903
763.996
731.837
714.307
703.254
692.821
681.931
667.893
652.584
637.762
622.435
606.69
590.524
573.511
555.839
537.551
518.343
498.215
477.074
454.405
429.999
404.052
376.887
349.289
320.568
288.35
252.152
214.1
181.748
165.412
170.053
192.792
218.511
228.426
208.086
149.962
63.719
-35.707
-128.885
-190.309
-207.819
-175.432
-101.144
-17.032
44.636
54.566
-3.762
-115.002
-249.303
-372.669
-450.893
-471.209
-440.132
-374.328
-303.624
-257.91
-254.221
-297.842
-378.831
-470.042
-545.887
-591.289
-599.88
-585.495
-568.886
-562.253
-574.445
-602.419
-635.558
-670.2
-705.334
-741.471
-779.82
-813.386
-831.961
-829.532
-807.096
-780.111
-768.339
-788.422
-849.361
-937.993
-1033.226
-1112.162
-1151.826
-1150.844
-1117.396
-1061.63
-1001.153
-944.009
-895.229
-866.265
-862.913
-888.637
-941.348
-1006.407
-1069.859
-1123.001
-1163.577
-1197.281
-1227.698
-1253.796
-1271.954
-1276.887
-1267.131
-1245.186
-1214.01
-1177.507
-1139.412
-1102.21
-1068.599
-1040.54
-1018.314
-1001.24
-988.21
-977.543
-967.363
-956.361
-943.296
-927.272
-908.134
-885.969
-861.064
-834.002
-805.444
-775.786
-745.313
-714.204
-682.451
-650.118
-617.283
-583.956
-550.158
-515.971
-481.522
-446.98
-412.538
-378.345
-344.511
-311.137
-278.309
-246.114
-214.639
-183.953
-154.11
-125.153
-97.119
-70.04
-43.94
-18.836
5.27
28.379
50.498
71.631
91.786
110.974
129.21
146.519
162.934
178.493
193.24
207.224
220.495
233.112
245.132
256.618
267.632
278.235
288.492
298.466
308.221
317.82
327.321
336.783
346.258
355.798
365.446
375.243
385.225
395.421
405.856
416.547
427.509
438.747
450.264
462.055
474.109
486.41
498.937
511.661
524.551
537.567
550.667
563.802
576.922
589.972
602.895
615.633
628.127
640.317
652.146
663.555
674.489
684.893
694.717
703.912
712.431
720.234
727.281
733.541
738.986
743.597
747.357
750.259
752.298
753.478
753.807
753.299
751.972
749.852
746.965
743.349
739.042
734.091
728.545
722.456
715.88
708.877
701.504
693.82
685.882
677.745
669.46
661.078
652.644
644.198
635.778
627.422
619.165
611.035
603.064
595.272
587.675
580.285
573.107
566.131
559.34
552.705
546.186
539.747
533.346
526.939
520.481
513.917
507.196
500.275
493.096
485.594
477.691
469.287
460.29
450.651
440.328
429.306
417.599
405.209
392.146
378.456
364.156
349.234
333.651
317.309
300.108
282.006
262.996
243.129
222.465
200.992
178.694
155.552
131.492
106.463
80.4
53.154
24.66
-5.019
-35.744
-67.219
-99.086
-131.084
-162.998
-194.656
-225.919
-256.574
-286.399
-315.21
-342.76
-368.794
-393.025
-415.039
-434.516
-451.326
-465.446
-477.043
-486.398
-493.682
-499.03
-502.581
-504.413
-504.65
-503.423
-500.789
-496.849
-491.753
-485.707
-479.034
-472.018
-464.787
-457.399
-449.787
-441.792
-433.345
-424.403
-414.903
-404.846
-394.242
-383.112
-371.556
-359.679
-347.533
-335.137
-322.45
-309.431
-296.114
-282.566
-268.893
-255.243
-241.726
-228.439
-215.5
-202.986
-190.951
-179.432
-168.42
-157.88
-147.804
-138.188
-129.034
-120.353
-112.13
-104.339
-96.949
-89.919
-83.204
-76.757
-70.519
-64.433
-58.452
-52.531
-46.634
-40.734
-34.797
-28.788
-22.675
-16.426
-10.009
-3.395
3.446
10.54
17.908
25.565
33.52
41.778
50.337
59.192
68.332
77.739
87.394
97.269
107.336
117.56
127.901
138.317
148.762
159.185
169.534
179.753
189.784
199.57
209.05
218.165
226.854
235.06
242.725
249.791
256.207
261.92
266.882
271.045
274.367
276.809
278.336
278.917
278.53
277.155
274.778
271.393
266.999
261.602
255.213
247.85
239.537
230.305
220.189
209.232
197.481
184.989
171.815
158.02
143.671
128.839
113.597
98.02
82.188
66.18
50.078
33.963
17.919
2.026
-13.632
-28.977
-43.928
-58.411
-72.349
-85.673
-98.315
-110.21
-121.299
-131.528
-140.846
-149.209
-156.577
-162.918
-168.204
-172.414
-175.534
-177.554
-178.472
-178.291
-177.02
-174.674
-171.275
-166.846
-161.419
-155.03
-147.719
-139.53
-130.51
-120.712
-110.19
-99.001
-87.205
-74.864
-62.041
-48.801
-35.209
-21.332
-7.234
7.017
21.357
35.723
50.052
64.284
78.362
92.231
105.84
119.14
132.086
144.638
156.757
168.411
179.57
190.208
200.305
209.843
218.811
227.198
235.001
242.22
248.857
254.92
260.419
265.369
269.787
273.692
277.107
280.059
282.576
284.686
286.422
287.818
288.907
289.724
290.305
290.685
290.898
290.979
290.959
290.872
290.747
290.612
290.495
290.42
290.41
290.483
290.658
290.949
291.367
291.921
292.617
293.455
294.436
295.557
296.81
298.186
299.674
301.259
302.924
304.65
306.414
308.194
309.964
311.698
313.369
314.948
316.407
317.718
318.854
319.786
320.49
320.938
321.109
320.978
320.526
319.732
318.58
317.056
315.146
312.842
310.135
307.024
303.506
299.583
295.26
290.546
285.449
279.983
274.165
268.012
261.547
254.792
247.773
240.519
233.059
225.425
217.648
209.762
201.8
193.795
185.781
177.789
169.853
162.004
154.273
146.689
139.281
132.076
125.1
118.377
111.929
105.777
99.938
94.43
89.265
84.458
80.017
75.952
72.269
68.972
66.064
63.544
61.413
59.666
58.298
57.302
56.671
56.395
56.465
56.87
57.601
58.647
59.999
61.646
63.581
65.793
68.277
71.025
74.03
77.289
80.796
84.549
88.546
92.786
97.269
101.998
106.972
112.196
117.672
123.403
129.395
135.65
142.176
148.977
156.058
163.427
171.089
179.052
187.32
195.899
204.794
214.009
223.544
233.402
243.579
254.073
264.879
275.987
287.389
299.071
311.017
323.209
335.626
348.244
361.037
373.974
387.024
400.154
413.326
426.503
439.645
452.71
465.656
478.439
491.014
503.333
515.351
527.02
538.291
549.116
559.448
569.24
578.443
587.014
594.908
602.083
608.5
614.122
618.913
622.844
625.887
628.017
629.215
629.465
628.755
627.079
624.433
620.818
616.241
610.711
604.241
596.849
588.555
579.382
569.358
558.512
546.875
534.483
521.37
507.576
493.138
478.098
462.497
446.378
429.781
412.75
395.326
377.549
359.459
341.093
322.487
303.674
284.686
265.55
246.291
226.931
207.488
187.977
168.411
148.798
129.142
109.446
89.71
69.93
50.101
30.216
10.266
-9.757
-29.865
-50.068
-70.376
-90.8
-111.349
-132.032
-152.858
-173.832
-194.959
-216.24
-237.676
-259.263
-280.996
-302.864
-324.855
-346.952
-369.134
-391.377
-413.652
-435.928
-458.168
-480.333
-502.377
-524.254
-545.913
-567.301
-588.361
-609.035
-629.263
-648.985
-668.14
-686.668
-704.506
-721.598
-737.883
-753.308
-767.818
-781.363
-793.897
-805.374
-815.757
-825.011
-833.106
-840.02
-845.732
-850.23
-853.505
-855.557
-856.39
-856.015
-854.446
-851.708
-847.828
-842.842
-836.79
-829.719
-821.679
-812.729
-802.927
-792.34
-781.036
-769.087
-756.567
-743.553
-730.124
-716.361
-702.345
-688.16
-673.887
-659.608
-645.405
-631.357
-617.541
-604.03
-590.893
-578.199
-566.012
-554.393
-543.4
-533.088
-523.505
-514.698
-506.709
-499.575
-493.328
-487.996
-483.598
-480.153
-477.673
-476.169
-475.645
-476.101
-477.534
-479.936
-483.298
-487.604
-492.833
-498.959
-505.952
-513.78
-522.407
-531.792
-541.89
-552.656
-564.05
-576.029
-588.554
-601.585
-615.076
-628.986
-643.277
-657.903
-672.818
-687.967
-703.289
-718.729
-734.24
-749.773
-765.288
-780.741
-796.086
-811.291
-826.333
-841.18
-855.799
-870.139
-884.125
-897.718
-910.915
-923.727
-936.197
-948.359
-960.231
-971.859
-983.319
-994.645
-1005.852
-1016.898
-1027.675
-1038.127
-1048.239
-1058.036
-1067.601
-1076.96
-1086.066
-1094.874
-1103.316
-1111.321
-1118.846
-1125.77
-1131.894
-1137.137
-1141.511
-1145.149
-1148.342
-1151.282
-1154.069
-1156.773
-1159.391
-1161.976
-1164.659
-1167.529
-1170.652
-1174.13
-1178.047
-1182.596
-1188.094
-1194.677
-1202.332
-1210.899
-1220.013
-1229.415
-1238.96
-1248.491
-1257.896
-1267.037
-1275.729
-1283.862
-1291.398
-1298.235
-1304.249
-1309.223
-1312.818
-1314.853
-1315.3
-1314.207
-1311.755
-1308.066
-1303.181
-1297.195
-1290.248
-1282.429
-1273.791
-1264.404
-1254.334
-1243.685
-1232.613
-1221.249
-1209.665
-1197.963
-1186.353
-1174.732
-1162.61
-1149.891
-1136.729
-1123.095
-1109.552
-1095.225
-1077.345
-1056.702
-1036.069
-1019.899
-1016.295
-1024.691
-1037.078
-1045.534
-1039.009
-1016.919
-989.399
-964.585
-951.596
-951.785
-957.848
-963.877
-963.162
-955.558
-947.361
-945.139
-958.377
-986.389
-1019.056
-1046.608
-1055.783
-1046.036
-1030.106
-1017.873
-1020.087
-1038.353
-1062.951
-1087.919
-1109.047
-1125.091
-1139.947
-1155.282
-1170.876
-1186.78
-1202.323
-1217.278
-1232.111
-1246.896
-1261.438
-1275.704
-1289.714
-1303.388
-1316.656
-1329.465
-1341.65
-1353.151
-1364.057
-1374.255
-1383.519
-1391.782
-1398.982
-1404.868
-1409.309
-1412.438
-1414.051
-1414.236
-1414.023
-1412.082
-1406.87
-1400.386
-1392.622
-1388.332
-1395.194
-1407.626
-1419.396
-1420.549
-1394.984
-1349.395
-1298.319
-1254.849
-1238.216
-1244.866
-1257.871
-1266.353
-1257.07
-1229.881
-1196.046
-1160.938
-1128.877
-1100.967
-1073.52
-1045.589
-1017.41
-988.732
-959.938
-930.43
-899.147
-864.978
-825.971
-780.533
-728.068
-668.302
-602.049
-531.673
-459.404
-387.981
-321.606
-262.107
-209.008
-164.725
-130.985
-110.246
-108.83
-121.741
-136.023
-139.349
-114.86
-59.364
15.685
100.893
184.686
261.853
337.726
414.093
489.633
561.737
624.784
674.976
712.124
738.008
754.701
764.716
771.42
777.073
783.654
793.603
807.736
825.735
847.379
871.377
895.739
919.454
941.593
961.028
977.462
990.817
1001.018
1008.64
1014.454
1018.791
1021.905
1023.986
1024.984
1024.973
1024.073
1022.243
1019.438
1015.69
1011.067
1005.716
999.825
993.521
986.891
980.011
972.936
965.736
958.482
951.227
944.011
936.859
929.789
922.828
915.998
909.321
902.815
896.481
890.31
884.296
878.425
872.692
867.096
861.629
856.278
851.041
845.916
840.911
836.043
831.315
826.724
822.257
817.886
813.61
809.446
805.449
801.722
798.326
795.274
792.552
790.097
787.875
785.933
784.225
782.599
781.077
779.768
779.005
779.436
781.275
784.209
787.911
791.972
795.81
798.945
800.241
797.761
790.723
779.541
764.963
748.325
730.769
712.794
696.153
683.991
677.837
677.638
682.67
691.058
701.656
714.65
728.589
740.221
747.604
750.107
747.942
742.836
735.592
725.178
711.76
697.041
682.231
668.011
654.252
639.243
621.828
602.785
582.959
562.747
542.381
521.842
501.628
483.5
469.283
459.308
452.738
448.092
444.231
440.68
436.941
431.909
424.083
412.703
398.254
382.135
365.566
349.165
333.271
318.254
304.83
293.586
284.504
277.074
270.8
265.462
261.085
257.828
255.703
254.636
254.635
255.786
258.195
261.92
266.929
273.12
280.405
288.727
298.055
308.376
319.659
331.854
344.906
358.753
373.333
388.587
404.453
420.863
437.745
455.027
472.642
490.521
508.601
526.811
545.074
563.305
581.427
599.362
617.044
634.406
651.386
667.922
683.958
699.441
714.326
728.574
742.148
755.018
767.163
778.567
789.229
799.153
808.352
816.842
824.645
831.787
838.3
844.22
849.587
854.437
858.812
862.756
866.32
869.567
872.565
875.383
878.096
880.783
883.525
886.415
889.54
892.973
896.787
901.054
905.851
911.276
917.421
924.351
932.12
940.765
950.291
960.698
971.955
983.973
996.668
1009.945
1023.711
1037.94
1052.608
1067.692
1083.178
1099.019
1115.177
1131.643
1148.417
1165.511
1183.015
1201.05
1219.756
1239.344
1259.928
1281.635
1304.671
1328.998
1354.334
1380.175
1405.937
1431.309
1456.354
1481.077
1505.105
1528.245
1550.684
1573.121
1596.359
1620.261
1643.733
1665.454
1684.684
1700.783
1712.523
1717.864
1714.686
1702.25
1681.284
1652.712
1617.029
1574.987
1527.928
1480.083
1435.642
1394.598
1357.192
1320.247
1280.599
1243.808
1212.2
1188.951
1179.339
1176.148
1173.503
1167.158
1149.375
1124.401
1099.432
1075.414
1053.423
1028.355
989.985
940.051
886.64
835.602
799.439
781.02
772.734
775.823
784.127
786.871
780.803
753.818
699.238
630.065
560.926
508.643
487.451
490.222
501.121
508.663
503.844
489.734
477.386
473.205
479.66
494.305
512.594
531.105
549.312
568.896
586.355
595.911
589.003
556.62
499.158
425.504
352.456
297.769
272.554
277.186
300.806
331.043
357.409
376.399
391.928
406.609
421.68
435.205
442.454
441.913
434.247
421.087
405.327
388.401
370.66
353.007
335.927
319.527
303.846
288.298
272.068
254.85
236.574
217.179
196.759
175.325
152.827
129.389
105.165
80.224
54.603
28.269
1.159
-26.727
-55.346
-84.646
-114.557
-145.021
-175.986
-207.385
-239.144
-271.176
-303.388
-335.689
-367.99
-400.199
-432.223
-463.962
-495.321
-526.211
-556.554
-586.28
-615.324
-643.62
-671.101
-697.706
-723.377
-748.059
-771.705
-794.27
-815.712
-835.995
-855.088
-872.965
-889.604
-904.987
-919.099
-931.928
-943.465
-953.706
-962.651
-970.302
-976.666
-981.751
-985.566
-988.127
-989.448
-989.545
-988.438
-986.146
-982.689
-978.089
-972.366
-965.545
-957.647
-948.695
-938.712
-927.72
-915.743
-902.805
-888.928
-874.138
-858.459
-841.918
-824.54
-806.354
-787.389
-767.674
-747.242
-726.125
-704.358
-681.978
-659.024
-635.538
-611.562
-587.142
-562.328
-537.169
-511.718
-486.031
-460.165
-434.178
-408.133
-382.091
-356.116
-330.275
-304.632
-279.256
-254.214
-229.572
-205.399
-181.759
-158.718
-136.338
-114.68
-93.803
-73.761
-54.607
-36.387
-19.148
-2.928
12.237
26.317
39.287
51.128
61.826
71.373
79.767
87.012
93.118
98.098
101.974
104.771
106.52
107.255
107.015
105.843
103.787
100.894
97.219
92.815
87.737
82.045
75.796
69.047
61.857
54.284
46.385
38.213
29.822
21.263
12.585
3.834
-4.946
-13.717
-22.442
-31.086
-39.622
-48.023
-56.268
-64.339
-72.223
-79.908
-87.388
-94.658
-101.718
-108.569
-115.214
-121.66
-127.913
-133.982
-139.877
-145.607
-151.185
-156.621
-161.926
-167.11
-172.181
-177.15
-182.023
-186.807
-191.505
-196.12
-200.655
-205.111
-209.487
-213.783
-217.996
-222.124
-226.163
-230.11
-233.959
-237.703
-241.337
-244.85
-248.237
-251.489
-254.599
-257.562
-260.37
-263.019
-265.508
-267.834
-269.997
-271.999
-273.839
-275.521
-277.055
-278.447
-279.708
-280.849
-281.883
-282.828
-283.703
-284.527
-285.319
-286.099
-286.886
-287.7
-288.557
-289.47
-290.45
-291.502
-292.637
-293.86
-295.178
-296.597
-298.12
-299.754
-301.506
-303.382
-305.381
-307.495
-309.706
-311.998
-314.352
-316.749
-319.168
-321.582
-323.958
-326.27
-328.509
-330.65
-332.658
-334.478
-336.023
-337.23
-338.059
-338.48
-338.475
-338.039
-337.171
-335.915
-334.36
-332.583
-330.655
-328.613
-326.442
-324.172
-321.86
-319.584
-317.473
-315.58
-313.883
-312.356
-310.958
-309.611
-308.211
-306.546
-304.286
-301.173
-297.004
-291.658
-285.064
-277.013
-267.282
-255.593
-241.607
-225.294
-206.79
-186.336
-164.579
