Name
Date of Birth,"Dec 28, 2003"
Recorded Date,2024-09-19 09:56:05 -0500
Classification,Poor Recording
Symptoms,
Software Version,1.90
Device,"Watch4,4"
Sample Rate,512.711 hertz


Lead,Lead I
Unit,µV

-397.158
-481.758
-495.848
-447.228
-370.299
-307.049
-277.979
-282.301
-304.906
-324.852
-332.416
-327.703
-314.232
-297.441
-279.31
-259.187
-237.049
-213.038
-187.669
-161.856
-136.189
-111.095
-87.191
-64.931
-44.411
-25.565
-8.167
8.102
23.365
37.672
51.15
63.849
75.801
87.023
97.424
106.916
115.507
123.27
130.367
136.961
143.103
148.795
153.982
158.543
162.416
165.554
167.882
169.377
170.051
169.938
169.139
167.783
165.96
163.743
161.186
158.328
155.233
151.977
148.634
145.288
142.018
138.9
136.02
133.452
131.252
129.461
128.104
127.188
126.723
126.717
127.172
128.09
129.47
131.309
133.602
136.347
139.531
143.137
147.143
151.524
156.249
161.289
166.612
172.182
177.966
183.931
190.043
196.273
202.59
208.965
215.374
221.791
228.194
234.566
240.888
247.147
253.333
259.438
265.459
271.395
277.246
283.016
288.709
294.33
299.885
305.377
310.809
316.182
321.499
326.759
331.962
337.106
342.187
347.199
352.134
356.983
361.731
366.361
370.852
375.18
379.316
383.231
386.889
390.254
393.286
395.941
398.175
399.942
401.193
401.878
401.948
401.353
400.043
397.971
395.094
391.367
386.754
381.219
374.732
367.269
358.808
349.336
338.842
327.324
314.785
301.234
286.686
271.165
254.699
237.324
219.082
200.023
180.202
159.679
138.52
116.797
94.586
71.968
49.025
25.846
2.518
-20.868
-44.221
-67.449
-90.463
-113.175
-135.499
-157.353
-178.659
-199.344
-219.339
-238.58
-257.011
-274.579
-291.241
-306.957
-321.696
-335.434
-348.153
-359.843
-370.5
-380.129
-388.738
-396.346
-402.975
-408.655
-413.422
-417.315
-420.38
-422.667
-424.231
-425.128
-425.419
-425.165
-424.431
-423.28
-421.776
-419.982
-417.958
-415.764
-413.455
-411.084
-408.701
-406.348
-404.068
-401.895
-399.859
-397.987
-396.298
-394.808
-393.525
-392.453
-391.592
-390.934
-390.468
-390.178
-390.043
-390.035
-390.126
-390.281
-390.461
-390.624
-390.726
-390.719
-390.552
-390.175
-389.533
-388.574
-387.244
-385.492
-383.266
-380.516
-377.197
-373.265
-368.678
-363.4
-357.399
-350.646
-343.118
-334.795
-325.665
-315.719
-304.955
-293.373
-280.983
-267.797
-253.834
-239.117
-223.676
-207.544
-190.762
-173.372
-155.426
-136.978
-118.086
-98.814
-79.229
-59.402
-39.406
-19.318
0.785
20.822
40.714
60.38
79.74
98.714
117.224
135.194
152.55
169.22
185.138
200.239
214.463
227.754
240.062
251.339
261.545
270.642
278.6
285.393
291.001
295.409
298.61
300.6
301.384
300.971
299.379
296.628
292.746
287.768
281.729
274.674
266.65
257.707
247.899
237.283
225.919
213.868
201.192
187.955
174.219
160.049
145.507
130.654
115.549
100.252
84.818
69.301
53.752
38.22
22.751
7.388
-7.831
-22.869
-37.695
-52.281
-66.603
-80.643
-94.385
-107.819
-120.937
-133.735
-146.214
-158.376
-170.227
-181.774
-193.027
-203.997
-214.697
-225.138
-235.335
-245.3
-255.045
-264.58
-273.914
-283.055
-292.007
-300.774
-309.355
-317.75
-325.955
-333.962
-341.76
-349.34
-356.693
-363.8
-370.644
-377.2
-383.438
-389.336
-394.87
-399.992
-404.656
-408.816
-412.419
-415.441
-417.869
-419.645
-420.708
-421.073
-420.743
-419.716
-418.007
-415.548
-412.232
-408.083
-403.164
-397.251
-390.084
-381.809
-372.413
-361.852
-350.675
-337.435
-320.73
-302.605
-283.699
-267.763
-259.285
-253.37
-246.772
-234.64
-210.297
-179.739
-148.059
-118.762
-97.61
-80.574
-63.57
-45.733
-24.593
-1.671
21.097
44.016
66.793
89.504
112.486
135.447
158.148
180.623
202.855
224.793
246.418
267.718
288.679
309.315
329.648
349.641
369.262
388.502
407.349
425.797
443.842
461.472
478.678
495.451
511.785
527.67
543.087
558.019
572.442
586.328
599.652
612.395
624.535
636.05
646.926
657.139
666.666
675.485
683.567
690.868
697.342
702.931
707.575
711.224
713.836
715.373
715.811
715.125
713.303
710.351
706.258
701.007
694.565
686.865
677.857
667.542
655.95
643.145
629.256
614.397
598.695
582.328
565.431
548.095
530.371
512.212
493.547
474.363
454.71
434.725
414.568
394.318
374.002
353.595
332.969
312.004
290.538
268.267
244.938
220.416
194.697
168.022
140.807
113.411
86.094
59.036
32.36
6.282
-18.88
-42.757
-64.928
-85
-102.493
-116.747
-127.084
-132.956
-134.061
-130.474
-122.603
-110.89
-95.706
-77.417
-56.408
-33.18
-8.398
17.201
42.969
68.321
92.56
114.848
134.236
149.8
160.908
167.296
169.008
166.204
159.022
147.641
132.379
113.698
92.227
68.676
43.566
17.304
-9.612
-36.631
-63.073
-88.198
-111.494
-132.688
-151.642
-168.307
-182.632
-194.584
-204.299
-212.05
-218.196
-223.154
-227.172
-230.372
-232.914
-234.949
-236.682
-238.369
-240.138
-242.01
-244.009
-246.143
-248.423
-250.877
-253.429
-255.92
-258.181
-260.022
-261.334
-262.08
-262.223
-261.738
-260.615
-258.838
-256.437
-253.484
-250.016
-246.058
-241.629
-236.734
-231.409
-225.714
-219.704
-213.432
-206.94
-200.255
-193.403
-186.41
-179.286
-172.033
-164.646
-157.108
-149.417
-141.579
-133.601
-125.497
-117.279
-108.961
-100.558
-92.091
-83.576
-75.028
-66.461
-57.887
-49.323
-40.787
-32.302
-23.89
-15.579
-7.397
0.623
8.449
16.046
23.377
30.406
37.091
43.394
49.271
54.679
59.574
63.911
67.647
70.738
73.145
74.83
75.761
75.909
75.249
73.762
71.432
68.251
64.214
59.322
53.578
46.992
39.579
31.358
22.355
12.6
2.127
-9.022
-20.804
-33.169
-46.062
-59.427
-73.202
-87.322
-101.719
-116.322
-131.057
-145.849
-160.622
-175.297
-189.796
-204.042
-217.958
-231.471
-244.507
-256.997
-268.876
-280.081
-290.556
-300.246
-309.105
-317.089
-324.164
-330.296
-335.463
-339.645
-342.831
-345.014
-346.195
-346.379
-345.579
-343.813
-341.105
-337.484
-332.985
-327.648
-321.52
-314.649
-307.093
-298.911
-290.166
-280.927
-271.264
-261.253
-250.969
-240.491
-229.9
-219.278
-208.706
-198.268
-188.044
-178.117
-168.566
-159.47
-150.902
-142.937
-135.642
-129.084
-123.324
-118.418
-114.419
-111.376
-109.329
-108.317
-108.372
-109.52
-111.78
-115.168
-119.692
-125.352
-132.144
-140.056
-149.071
-159.162
-170.299
-182.443
-195.55
-209.57
-224.446
-240.116
-256.512
-273.561
-291.186
-309.304
-327.831
-346.677
-365.752
-384.963
-404.216
-423.415
-442.467
-461.277
-479.752
-497.804
-515.343
-532.276
-548.516
-563.98
-578.59
-592.28
-604.986
-616.633
-627.175
-636.594
-644.869
-651.986
-657.928
-662.645
-666.1
-668.323
-669.281
-668.872
-667.057
-663.813
-659.138
-653.176
-646.079
-637.818
-628.613
-619.071
-609.343
-599.263
-589.026
-578.309
-567.835
-560.433
-555.872
-551.383
-542.582
-521.594
-486.962
-445.901
-409.255
-389.901
-393.416
-413.22
-434.905
-445.353
-437.034
-411.162
-379.82
-352.168
-333.345
-326.197
-324.501
-323.82
-322.988
-319.718
-315.777
-312.753
-310.064
-308.026
-306.452
-304.854
-303.482
-302.53
-301.919
-301.662
-301.76
-302.116
-302.647
-303.298
-303.973
-304.579
-305.083
-305.447
-305.617
-305.557
-305.233
-304.607
-303.655
-302.357
-300.688
-298.626
-296.16
-293.278
-289.975
-286.25
-282.102
-277.537
-272.562
-267.186
-261.422
-255.285
-248.789
-241.952
-234.792
-227.325
-219.57
-211.545
-203.267
-194.752
-186.014
-177.066
-167.92
-158.585
-149.066
-139.368
-129.491
-119.433
-109.189
-98.75
-88.105
-77.241
-66.142
-54.79
-43.164
-31.243
-19.003
-6.421
6.529
19.87
33.628
47.826
62.488
77.635
93.287
109.461
126.172
143.433
161.251
179.632
198.579
218.089
238.156
258.771
279.919
301.581
323.734
346.348
369.392
392.827
416.612
440.698
465.035
489.568
514.238
538.982
563.735
588.429
612.992
637.353
661.436
685.168
708.471
731.27
753.49
775.057
795.897
815.94
835.117
853.362
870.614
886.813
901.903
915.835
928.561
940.04
950.235
959.114
966.651
972.825
977.624
981.037
983.063
983.706
982.976
980.889
977.469
972.744
966.749
959.524
951.115
941.576
930.963
919.34
906.774
893.337
879.105
864.157
848.576
832.446
815.853
798.884
781.627
764.172
746.608
729.025
711.513
694.159
677.049
660.266
643.889
627.995
612.658
597.942
583.913
570.629
558.147
546.521
535.801
526.024
517.222
509.416
502.62
496.843
492.087
488.348
485.615
483.875
483.112
483.316
484.467
486.538
489.489
493.267
497.816
503.094
509.058
515.677
522.925
530.766
539.161
548.081
557.484
567.324
577.541
588.051
598.771
609.629
620.577
631.604
642.688
653.775
664.769
675.512
685.853
695.721
705.068
713.896
722.243
730.041
737.306
744.246
750.865
757.008
762.352
766.084
767.523
766.759
764.015
759.667
754.856
750.661
748.42
750.615
759.124
774.173
795.38
821.247
848.826
875.853
899.988
917.517
925.833
924.203
912.745
893.522
870.221
845.331
821.079
800.561
785.674
777.157
775.182
778.112
783.206
788.797
793.598
796.151
795.814
792.184
784.958
774.765
762.629
749.056
734.34
718.632
701.756
683.685
664.492
644.056
622.242
599.016
574.384
548.456
521.414
493.363
464.364
434.464
403.69
372.095
339.756
306.752
273.164
239.072
204.556
169.702
134.596
99.322
63.963
28.59
-6.722
-41.889
-76.821
-111.421
-145.586
-179.224
-212.255
-244.598
-276.185
-306.951
-336.836
-365.793
-393.782
-420.767
-446.712
-471.589
-495.372
-518.042
-539.584
-559.982
-579.225
-597.307
-614.234
-630.016
-644.67
-658.219
-670.695
-682.138
-692.604
-702.14
-710.786
-718.582
-725.559
-731.749
-737.184
-741.891
-745.886
-749.195
-751.84
-753.86
-755.311
-756.226
-756.627
-756.512
-755.856
-754.653
-752.937
-750.734
-748.068
-745.007
-741.636
-738.103
-734.629
-731.363
-728.384
-725.723
-723.331
-721.159
-719.178
-717.321
-715.51
-713.667
-711.673
-709.458
-707.004
-704.179
-700.791
-696.523
-690.901
-683.614
-674.536
-663.618
-650.954
-636.713
-621.084
-604.41
-587.167
-569.751
-552.533
-535.791
-519.666
-504.45
-490.538
-478.43
-468.798
-462.123
-458.644
-458.535
-461.826
-468.385
-478.005
-490.229
-504.361
-519.847
-536.237
-553.174
-570.467
-587.803
-604.758
-620.881
-635.629
-648.564
-659.407
-667.896
-673.834
-677.182
-677.996
-676.534
-673.271
-668.547
-662.579
-655.527
-647.431
-638.383
-628.541
-618.032
-606.986
-595.531
-583.762
-571.796
-559.77
-547.733
-535.684
-523.541
-511.128
-498.345
-485.17
-471.609
-457.724
-443.585
-429.252
-414.83
-400.457
-386.245
-372.294
-358.684
-345.466
-332.712
-320.51
-308.957
-298.164
-288.228
-279.228
-271.238
-264.326
-258.543
-253.93
-250.498
-248.228
-247.097
-247.073
-248.116
-250.182
-253.22
-257.174
-261.99
-267.609
-273.974
-281.025
-288.679
-296.835
-305.37
-314.134
-322.992
-331.83
-340.558
-349.115
-357.481
-365.67
-373.709
-381.632
-389.433
-397.063
-404.41
-411.309
-417.588
-423.057
-427.598
-431.169
-433.72
-435.194
-435.507
-434.535
-432.081
-427.886
-421.647
-413.036
-401.827
-387.931
-371.435
-352.546
-331.573
-308.914
-284.867
-259.706
-233.7
-207.036
-179.935
-152.639
-125.436
-98.857
-73.54
-49.831
-27.998
-8.147
9.905
26.037
40.238
53.195
65.416
76.677
86.87
95.456
101.81
106.647
110.459
113.309
116.009
119.525
124.821
132.254
140.351
148.813
159.165
175.783
206.48
250.996
302.977
351.763
380.413
384.365
367.992
341.028
322.975
324.037
346.878
387.722
431.446
467.541
490.061
498.444
501.093
503.903
510.104
520.844
533.091
545.302
557.523
569.628
582.204
595.357
608.552
621.598
634.473
647.147
659.637
671.946
684.06
695.99
707.781
719.442
730.937
742.25
753.389
764.36
775.171
785.826
796.311
806.614
816.727
826.628
836.286
845.669
854.742
863.475
871.839
879.802
887.332
894.394
900.953
906.972
912.414
917.237
921.399
924.859
927.573
929.498
930.594
930.82
930.137
928.507
925.894
922.264
917.589
911.84
904.992
897.028
887.93
877.688
866.299
853.764
840.093
825.301
809.41
792.449
774.454
755.464
735.524
714.684
693
670.531
647.341
623.498
599.074
574.144
548.786
523.083
497.116
470.969
444.727
418.474
392.294
366.27
340.484
315.015
289.941
265.334
241.265
217.797
194.993
172.906
151.585
131.074
111.409
92.62
74.733
57.766
41.73
26.632
12.474
-0.749
-13.048
-24.436
-34.932
-44.561
-53.348
-61.323
-68.52
-74.972
-80.717
-85.792
-90.236
-94.087
-97.383
-100.164
-102.466
-104.326
-105.776
-106.85
-107.575
-107.977
-108.08
-107.902
-107.459
-106.762
-105.822
-104.642
-103.226
-101.571
-99.676
-97.533
-95.135
-92.47
-89.527
-86.293
-82.752
-78.891
-74.694
-70.146
-65.235
-59.947
-54.27
-48.196
-41.717
-34.826
-27.522
-19.804
-11.675
-3.14
5.79
15.102
24.78
34.802
45.144
55.776
66.666
77.777
89.072
100.506
112.035
123.612
135.186
146.706
158.119
169.371
180.407
191.171
201.609
211.666
221.287
230.421
239.015
247.02
254.389
261.077
267.039
272.236
276.63
280.185
282.87
284.656
285.517
285.434
284.387
282.363
279.354
275.352
270.356
264.368
257.394
249.441
240.523
230.654
219.854
208.142
195.544
182.086
167.795
152.703
136.842
120.245
102.947
84.985
66.396
47.218
27.49
7.252
-13.454
-34.586
-56.101
-77.956
-100.106
-122.506
-145.11
-167.874
-190.751
-213.696
-236.663
-259.606
-282.479
-305.236
-327.832
-350.221
-372.357
-394.196
-415.693
-436.803
-457.482
-477.687
-497.373
-516.498
-535.019
-552.894
-570.079
-586.535
-602.221
-617.096
-631.123
-644.265
-656.488
-667.759
-678.048
-687.327
-695.572
-702.76
-708.874
-713.898
-717.82
-720.633
-722.333
-722.921
-722.402
-720.785
-718.085
-714.32
-709.514
-703.694
-696.895
-689.153
-680.512
-671.017
-660.72
-649.679
-637.954
-625.61
-612.717
-599.348
-585.58
-571.492
-557.167
-542.69
-528.145
-513.62
-499.203
-484.981
-471.04
-457.466
-444.343
-431.75
-419.766
-408.464
-397.913
-388.177
-379.314
-371.377
-364.41
-358.454
-353.537
-349.686
-346.915
-345.233
-344.638
-345.123
-346.669
-349.251
-352.836
-357.379
-362.83
-369.13
-376.213
-384.006
-392.429
-401.395
-410.813
-420.586
-430.615
-440.795
-451.02
-461.181
-471.17
-480.879
-490.2
-499.027
-507.258
-514.795
-521.543
-527.415
-532.328
-536.206
-538.982
-540.595
-540.994
-540.136
-537.987
-534.524
-529.732
-523.606
-516.152
-507.387
-497.334
-486.03
-473.52
-459.856
-445.102
-429.329
-412.617
-395.051
-376.725
-357.739
-338.196
-318.207
-297.884
-277.342
-256.699
-236.072
-215.579
-195.338
-175.463
-156.068
-137.262
-119.15
-101.832
-85.404
-69.955
-55.567
-42.316
-30.269
-19.489
-10.027
-1.927
4.775
10.052
13.884
16.263
17.186
16.661
14.704
11.339
6.598
0.522
-6.844
-15.443
-25.214
-36.09
-47.999
-60.861
-74.594
-89.111
-104.321
-120.132
-136.445
-153.165
-170.19
-187.422
-204.759
-222.1
-239.347
-256.399
-273.16
-289.535
-305.429
-320.754
-335.422
-349.349
-362.456
-374.666
-385.91
-396.12
-405.237
-413.204
-419.972
-425.497
-429.742
-432.677
-434.275
-434.519
-433.398
-430.907
-427.048
-421.831
-415.271
-407.391
-398.223
-387.802
-376.172
-363.384
-349.494
-334.564
-318.664
-301.866
-284.25
-265.901
-246.905
-227.356
-207.349
-186.983
-166.359
-145.581
-124.753
-103.979
-83.366
-63.017
-43.037
-23.526
-4.584
13.692
31.209
47.878
63.615
78.34
91.98
104.468
115.744
125.754
134.454
141.805
147.779
152.357
155.524
157.279
157.627
156.581
154.163
150.405
145.344
139.028
131.508
122.846
113.108
102.367
90.701
78.191
64.926
50.993
36.486
21.5
6.132
-9.522
-25.363
-41.294
-57.219
-73.043
-88.673
-104.02
-118.998
-133.525
-147.526
-160.927
-173.663
-185.672
-196.902
-207.302
-216.832
-225.455
-233.143
-239.874
-245.63
-250.403
-254.189
-256.989
-258.811
-259.668
-259.577
-258.561
-256.645
-253.858
-250.236
-245.813
-240.629
-234.725
-228.145
-220.934
-213.136
-204.8
-195.97
-186.695
-177.019
-166.987
-156.643
-146.029
-135.185
-124.149
-112.958
-101.645
-90.241
-78.775
-67.273
-55.759
-44.252
-32.772
-21.334
-9.95
1.367
12.611
23.773
34.85
45.839
56.739
67.551
78.279
88.927
99.501
110.009
120.458
130.859
141.222
151.557
161.874
172.185
182.502
192.835
203.195
213.593
224.039
234.542
245.114
255.758
266.477
277.276
288.154
299.112
310.155
321.275
332.46
343.723
355.069
366.499
378.02
389.605
401.212
412.848
424.514
436.134
447.643
458.982
470.076
480.944
491.641
502.085
512.158
522.038
531.941
541.675
551.215
560.567
569.138
578.385
589.734
601.09
611.798
618.019
615.157
608.23
600.586
597.233
605.063
617.993
630.866
640.147
640.001
634.633
628.304
621.976
618.238
615.578
612.072
608.103
603.472
598.392
593.306
587.983
582.194
575.921
569.152
561.902
554.24
546.293
538.136
529.766
521.325
513.04
504.938
496.963
488.694
479.245
468.281
456.091
443.074
429.839
417.122
405.494
396.39
392.209
394.064
401.748
414.184
429.161
444.778
459.856
472.146
478.367
476.753
466.97
450.217
429.543
407.207
384.316
362.66
344.534
331.293
323.512
320.356
319.344
318.804
318.073
316.394
313.118
307.825
300.095
290.17
279.11
267.564
255.787
243.963
231.912
219.446
206.549
193.097
178.874
163.78
147.652
130.2
111.216
90.507
68.011
43.861
18.209
-8.898
-37.591
-67.696
-98.552
-129.354
-159.175
-187.538
-214.732
-240.655
-264.475
-285.93
-305.051
-321.819
-337.347
-351.852
-363.716
-372.309
-377.274
-376.907
-370.312
-357.002
-334.794
-303.261
-264.135
-217.667
-165.324
-110.734
-56.131
-3.702
42.955
82.309
114.088
136.495
149.699
155.846
155.802
150.76
142.699
132.225
119.855
107.229
94.436
80.447
65.322
49.12
31.812
13.963
-4.352
-23.601
-43.286
-62.326
-80.137
-96.294
-110.724
-123.616
-134.67
-143.404
-149.687
-153.712
-155.89
-156.7
-156.356
-154.788
-151.926
-147.785
-142.529
-136.273
-128.923
-120.235
-109.893
-97.869
-84.478
-69.994
-54.575
-38.229
-20.801
-2.207
17.478
38.164
59.774
82.248
105.604
129.72
154.307
179.047
203.576
227.753
251.697
275.462
299.033
322.346
345.259
367.681
389.622
411.005
431.679
451.515
470.353
488.146
504.951
520.772
535.625
549.429
561.988
573.221
583.087
591.499
598.416
603.762
607.372
609.347
609.873
608.765
605.927
601.209
594.322
585.599
575.511
563.949
550.888
536.892
522.269
507.716
494.122
480.77
466.836
452.396
437.278
420.97
403.335
383.436
360.183
334.66
307.981
280.42
252.606
224.935
197.482
171.241
147.255
124.85
103.405
82.733
62.355
42.335
22.894
3.607
-15.913
-35.327
-54.367
-72.846
-90.451
-107.27
-123.426
-138.8
-153.325
-167.028
-179.909
-192.016
-203.416
-214.064
-223.925
-233.001
-241.278
-248.789
-255.572
-261.65
-267.054
-271.819
-275.974
-279.562
-282.624
-285.202
-287.342
-289.086
-290.475
-291.557
-292.374
-292.972
-293.397
-293.684
-293.866
-293.976
-294.045
-294.106
-294.191
-294.327
-294.539
-294.85
-295.283
-295.857
-296.589
-297.494
-298.582
-299.862
-301.339
-303.017
-304.896
-306.974
-309.243
-311.696
-314.319
-317.099
-320.019
-323.061
-326.204
-329.427
-332.707
-336.021
-339.344
-342.652
-345.921
-349.126
-352.242
-355.245
-358.111
-360.816
-363.337
-365.651
-367.735
-369.569
-371.13
-372.398
-373.352
-373.974
-374.244
-374.147
-373.664
-372.783
-371.489
-369.77
-367.616
-365.018
-361.968
-358.461
-354.491
-350.056
-345.154
-339.786
-333.952
-327.654
-320.896
-313.683
-306.02
-297.914
-289.37
-280.398
-271.006
-261.203
-251
-240.409
-229.441
-218.11
-206.431
-194.419
-182.091
-169.463
-156.554
-143.382
-129.967
-116.33
-102.491
-88.471
-74.293
-59.98
-45.554
-31.039
-16.46
-1.84
12.797
27.426
42.023
56.564
71.024
85.379
99.608
113.681
127.572
141.256
154.704
167.896
180.81
193.417
205.684
217.603
229.165
240.355
251.17
261.573
271.516
281.001
290.033
298.538
306.459
313.746
320.335
326.254
331.576
336.242
340.161
343.544
346.649
349.312
351.546
353.399
354.308
355.794
359.337
362.835
365.655
363.931
353.034
338.115
322.611
311.637
312.212
318.164
324.265
326.943
320.277
308.547
296.088
283.888
274.606
266.748
258.389
249.936
241.173
232.266
223.647
215.09
206.422
197.744
189.105
180.512
172.001
163.617
155.394
147.397
139.692
132.283
125.171
118.38
111.92
105.804
100.045
94.642
89.593
84.9
80.561
76.571
72.919
69.592
66.572
63.84
61.371
59.141
57.12
55.278
53.58
51.99
50.473
48.988
47.497
45.958
44.331
42.575
40.65
38.515
36.133
33.467
30.483
27.147
23.428
19.3
14.735
9.711
4.207
-1.794
-8.306
-15.341
-22.907
-31.006
-39.64
-48.806
-58.496
-68.699
-79.401
-90.584
-102.225
-114.3
-126.78
-139.635
-152.831
-166.331
-180.098
-194.091
-208.271
-222.597
-237.025
-251.516
-266.029
-280.524
-294.963
-309.308
-323.525
-337.578
-351.438
-365.073
-378.455
-391.559
-404.36
-416.839
-428.975
-440.754
-452.16
-463.182
-473.813
-484.046
-493.878
-503.307
-512.335
-520.965
-529.203
-537.057
-544.535
-551.65
-558.412
-564.834
-570.929
-576.709
-582.186
-587.371
-592.273
-596.901
-601.262
-605.359
-609.196
-612.774
-616.091
-619.145
-621.93
-624.441
-626.669
-628.604
-630.233
-631.545
-632.524
-633.155
-633.422
-633.305
-632.788
-631.85
-630.471
-628.631
-626.309
-623.484
-620.135
-616.24
-611.781
-606.737
-601.092
-594.828
-587.932
-580.391
-572.196
-563.34
-553.817
-543.626
-532.767
-521.245
-509.063
-496.232
-482.761
-468.663
-453.952
-438.644
-422.757
-406.309
-389.322
-371.814
-353.809
-335.329
-316.395
-297.031
-277.261
-257.107
-236.593
-215.743
-194.58
-173.127
-151.406
-129.439
-107.247
-84.851
-62.27
-39.522
-16.625
6.407
29.556
52.809
76.153
99.574
123.061
146.599
170.178
193.784
217.404
241.023
264.626
288.197
311.717
335.167
358.526
381.77
404.874
427.812
450.555
473.071
495.328
517.292
538.926
560.192
581.05
601.458
621.375
640.756
659.555
677.727
695.224
711.999
728.003
743.188
757.506
770.91
783.355
794.796
805.191
814.499
822.683
829.708
835.545
840.165
843.545
845.667
846.515
846.079
844.355
841.34
837.04
831.464
824.625
816.542
807.239
796.744
785.089
772.312
758.455
743.561
727.682
710.871
693.184
674.681
655.427
635.487
614.929
593.824
572.244
550.26
527.945
505.373
482.616
459.746
436.833
413.946
391.153
368.516
346.1
323.962
302.158
280.742
259.761
239.262
219.286
199.869
181.046
162.846
145.295
128.414
112.22
96.727
81.945
67.878
54.527
41.889
29.957
18.72
8.165
-1.727
-10.975
-19.604
-27.637
-35.104
-42.033
-48.454
-54.4
-59.904
-64.998
-69.716
-74.093
-78.16
-81.951
-85.498
-88.831
-91.981
-94.976
-97.842
-100.606
-103.293
-105.925
-108.523
-111.107
-113.694
-116.301
-118.941
-121.625
-124.364
-127.165
-130.033
-132.971
-135.983
-139.068
-142.225
-145.452
-148.745
-152.101
-155.512
-158.975
-162.482
-166.027
-169.604
-173.205
-176.824
-180.455
-184.092
-187.73
-191.365
-194.991
-198.605
-202.204
-205.784
-209.342
-212.875
-216.382
-219.859
-223.304
-226.715
-230.091
-233.428
-236.724
-239.977
-243.183
-246.337
-249.434
-252.468
-255.429
-258.308
-261.093
-263.77
-266.325
-268.738
-270.991
-273.061
-274.925
-276.556
-277.928
-279.009
-279.77
-280.177
-280.197
-279.795
-278.938
-277.59
-275.717
-273.284
-270.26
-266.611
-262.308
-257.322
-251.627
-245.2
-238.018
-230.066
-221.33
-211.801
-201.476
-190.356
-178.448
-165.764
-152.325
-138.156
-123.289
-107.761
-91.62
-74.914
-57.703
-40.048
-22.019
-3.689
14.863
33.557
52.305
71.02
89.612
107.988
126.055
143.72
160.892
177.477
193.386
208.531
222.827
236.193
248.551
259.828
269.958
278.88
286.54
292.893
297.9
301.532
303.769
304.6
304.023
302.046
298.687
293.972
287.938
280.627
272.094
262.399
251.609
239.797
227.045
213.436
199.059
184.006
168.374
152.257
135.756
118.968
101.992
84.927
67.869
50.913
34.151
17.673
1.564
-14.097
-29.233
-43.777
-57.664
-70.841
-83.258
-94.876
-105.662
-115.591
-124.646
-132.82
-140.11
-146.524
-152.073
-156.777
-160.663
-163.76
-166.105
-167.738
-168.701
-169.041
-168.807
-168.049
-166.819
-165.169
-163.153
-160.823
-158.233
-155.435
-152.481
-149.42
-146.301
-143.171
-140.073
-137.049
-134.135
-131.365
-128.771
-126.377
-124.207
-122.279
-120.606
-119.201
-118.07
-117.216
-116.641
-116.343
-116.316
-116.555
-117.051
-117.795
-118.777
-119.986
-121.413
-123.046
-124.875
-126.892
-129.085
-131.448
-133.971
-136.647
-139.469
-142.429
-145.521
-148.741
-152.083
-155.543
-159.118
-162.807
-166.607
-170.519
-174.542
-178.677
-182.925
-187.287
-191.764
-196.357
-201.067
-205.894
-210.836
-215.893
-221.06
-226.332
-231.703
-237.163
-242.702
-248.305
-253.958
-259.643
-265.341
-271.03
-276.69
-282.296
-287.823
-293.247
-298.541
-303.679
-308.635
-313.381
-317.89
-322.136
-326.093
-329.735
-333.038
-335.979
-338.536
-340.688
-342.417
-343.707
-344.543
-344.914
-344.81
-344.225
-343.156
-341.602
-339.565
-337.054
-334.076
-330.646
-326.779
-322.494
-317.814
-312.763
-307.367
-301.655
-295.658
-289.408
-282.939
-276.283
-269.477
-262.556
-255.554
-248.509
-241.453
-234.422
-227.449
-220.564
-213.798
-207.178
-200.731
-194.479
-188.444
-182.644
-177.094
-171.806
-166.789
-162.049
-157.588
-153.407
-149.5
-145.86
-142.478
-139.34
-136.43
-133.731
-131.223
-128.883
-126.687
-124.61
-122.626
-120.708
-118.826
-116.953
-115.06
-113.118
-111.099
-108.977
-106.726
-104.32
-101.738
-98.959
-95.965
-92.738
-89.267
-85.54
-81.55
-77.292
-72.764
-67.967
-62.905
-57.586
-52.018
-46.213
-40.186
-33.951
-27.528
-20.934
-14.191
-7.319
-0.341
6.722
13.845
21.006
28.182
35.35
42.488
49.574
56.586
63.506
70.315
76.995
83.533
89.913
96.125
102.159
108.009
113.67
119.141
124.419
129.509
134.415
139.142
143.699
148.095
152.339
156.444
160.419
164.277
168.026
171.678
175.242
178.724
182.132
185.47
188.742
191.948
195.089
198.163
201.166
204.093
206.936
209.686
212.334
214.866
217.27
219.531
221.63
223.552
225.277
226.783
228.051
229.057
229.779
230.193
230.277
230.009
229.366
228.329
226.879
225.002
222.682
219.911
216.681
212.988
208.835
204.225
199.166
193.671
187.757
181.443
174.753
167.714
160.357
152.712
144.817
136.707
128.42
119.998
111.482
102.913
94.335
85.792
77.327
68.985
60.809
52.842
45.127
37.705
30.614
23.893
17.576
11.695
6.278
1.351
-3.067
-6.958
-10.31
-13.117
-15.375
-17.087
-18.261
-18.907
-19.041
-18.684
-17.859
-16.592
-14.914
-12.854
-10.448
-7.728
-4.732
-1.496
1.944
5.549
9.282
13.105
16.981
20.874
24.748
28.568
32.3
35.912
39.375
42.659
45.739
48.592
51.198
53.541
55.606
57.386
58.874
60.07
60.978
61.605
61.963
62.067
61.938
61.598
61.072
60.388
59.576
58.668
57.697
56.697
55.704
54.753
53.882
53.126
52.522
52.108
51.92
51.995
52.368
53.075
54.15
55.626
57.536
59.909
62.774
66.157
70.081
74.565
79.627
85.278
91.526
98.377
105.828
113.876
122.51
131.717
141.48
151.777
162.583
173.87
185.606
197.756
210.284
223.151
236.314
249.73
263.353
277.137
291.034
304.993
318.964
332.897
346.74
360.44
373.947
387.209
400.177
412.801
425.036
436.837
448.162
458.974
469.24
478.928
488.014
496.476
504.299
511.471
517.985
523.838
529.033
533.576
537.477
540.751
543.416
545.493
547.006
547.982
548.451
548.445
547.997
547.142
545.918
544.361
542.509
540.402
538.077
535.572
532.924
530.169
527.34
524.469
521.584
518.711
515.872
513.086
510.368
507.728
505.174
502.709
500.333
498.04
495.824
493.673
491.576
489.516
487.474
485.432
483.37
481.264
479.095
476.839
474.475
471.983
469.342
466.535
463.543
460.355
456.956
453.339
449.496
445.426
441.129
436.611
431.88
426.95
421.838
416.566
411.159
405.647
400.063
394.445
388.832
383.265
377.791
372.453
367.301
362.38
357.738
353.421
349.474
345.94
342.859
340.269
338.204
336.693
335.763
335.434
335.723
336.64
338.19
340.374
343.185
346.61
350.632
355.225
360.359
365.999
372.103
378.624
385.508
392.701
400.14
407.76
415.495
423.273
431.023
438.67
446.14
453.36
460.257
466.759
472.798
478.308
483.226
487.494
491.058
493.87
495.887
497.071
497.391
496.823
495.348
492.953
489.633
485.39
480.231
474.168
467.222
459.417
450.785
441.36
431.184
420.302
408.761
396.614
383.916
370.724
357.097
343.095
328.779
314.208
299.445
284.546
269.57
254.571
239.601
224.708
209.939
195.332
180.926
166.751
152.835
139.2
125.862
112.835
100.124
87.733
75.659
63.897
52.435
41.26
30.354
19.696
9.262
-0.973
-11.037
-20.96
-30.773
-40.508
-50.197
-59.873
-69.568
-79.315
-89.144
-99.086
-109.168
-119.418
-129.859
-140.514
-151.4
-162.533
-173.926
-185.588
-197.522
-209.732
-222.215
-234.965
-247.973
-261.228
-274.714
-288.412
-302.302
-316.361
-330.564
-344.883
-359.292
-373.76
-388.259
-402.758
-417.227
-431.636
-445.955
-460.154
-474.206
-488.081
-501.755
-515.201
-528.396
-541.317
-553.944
-566.26
-578.249
-589.897
-601.193
-612.129
-622.7
-632.903
-642.736
-652.203
-661.307
-670.055
-678.456
-686.522
-694.263
-701.695
-708.83
-715.686
-722.277
-728.618
-734.726
-740.614
-746.297
-751.788
-757.098
-762.239
-767.219
-772.046
-776.726
-781.264
-785.661
-789.918
-794.033
-798.002
-801.819
-805.474
-808.957
-812.255
-815.351
-818.229
-820.868
-823.246
-825.34
-827.123
-828.57
-829.652
-830.34
-830.604
-830.416
-829.747
-828.567
-826.849
-824.568
-821.7
-818.221
-814.113
-809.357
-803.937
-797.842
-791.062
-783.59
-775.422
-766.559
-757.003
-746.762
-735.844
-724.263
-712.036
-699.184
-685.729
-671.699
-657.123
-642.036
-626.472
-610.472
-594.076
-577.329
-560.276
-542.964
-525.441
-507.757
-489.961
-472.102
-454.227
-436.386
-418.623
-400.984
-383.51
-366.244
-349.221
-332.479
-316.049
-299.963
-284.245
-268.921
-254.01
-239.53
-225.494
-211.914
-198.795
-186.141
-173.953
-162.228
-150.96
-140.138
-129.752
-119.785
-110.219
-101.036
-92.212
-83.724
-75.549
-67.659
-60.031
-52.637
-45.454
-38.457
-31.625
-24.936
-18.371
-11.915
-5.552
0.727
6.931
13.066
19.133
25.131
31.055
36.898
42.647
48.289
53.804
59.172
64.367
69.362
74.125
78.622
82.817
86.671
90.142
93.187
95.763
97.824
99.324
100.219
100.464
100.016
98.834
96.878
94.113
90.506
86.028
80.657
74.371
67.159
59.01
49.921
39.897
28.946
17.085
4.334
-9.278
-23.715
-38.936
-54.892
-71.528
-88.783
-106.59
-124.874
-143.557
-162.554
-181.774
-201.125
-220.508
-239.823
-258.965
-277.83
-296.311
-314.3
-331.692
-348.382
-364.265
-379.244
-393.221
-406.105
-417.811
-428.259
-437.375
-445.094
-451.358
-456.116
-459.327
-460.96
-460.991
-459.409
-456.21
-451.402
-445.004
-437.044
-427.56
-416.603
-404.231
-390.513
-375.528
-359.362
-342.112
-323.881
-304.779
-284.923
-264.437
-243.449
-222.09
-200.496
-178.803
-157.149
-135.671
-114.507
-93.791
-73.655
-54.226
-35.629
-17.982
-1.397
14.021
28.174
40.97
52.331
62.182
70.463
77.121
82.114
85.411
86.99
86.842
84.965
81.372
76.082
69.127
60.547
50.392
38.723
25.607
11.12
-4.653
-21.624
-39.695
-58.767
-78.733
-99.485
-120.913
-142.903
-165.34
-188.112
-211.102
-234.198
-257.288
-280.262
-303.015
-325.443
-347.449
-368.938
-389.821
-410.016
-429.444
-448.032
-465.715
-482.431
-498.128
-512.757
-526.278
-538.655
-549.861
-559.875
-568.683
-576.276
-582.651
-587.813
-591.771
-594.537
-596.132
-596.578
-595.901
-594.133
-591.307
-587.461
-582.633
-576.865
-570.2
-562.682
-554.356
-545.268
-535.464
-524.99
-513.892
-502.215
-490.005
-477.307
-464.166
-450.626
-436.73
-422.52
-408.038
-393.323
-378.415
-363.35
-348.164
-332.89
-317.562
-302.209
-286.86
-271.544
-256.287
-241.113
-226.045
-211.104
-196.312
-181.686
-167.245
-153.006
-138.984
-125.195
-111.654
-98.375
-85.372
-72.657
-60.242
-48.139
-36.358
-24.907
-13.796
-3.031
7.383
17.44
27.139
36.476
45.452
54.067
62.322
70.222
77.77
84.973
91.837
98.371
104.583
110.484
116.086
121.399
126.437
131.215
135.746
140.049
144.138
148.034
151.754
155.32
158.752
162.071
165.299
168.457
171.568
174.653
177.735
180.837
183.979
187.184
190.472
193.862
197.373
201.023
204.826
208.797
212.948
217.291
221.836
226.592
231.565
236.762
242.188
247.845
253.735
259.858
266.213
272.795
279.6
286.623
293.857
301.295
308.927
316.746
324.744
332.911
341.236
349.707
358.312
367.035
375.86
384.77
393.746
402.771
411.826
420.896
429.963
439.013
448.028
456.993
465.892
474.706
483.419
492.012
500.464
508.757
516.87
524.783
532.477
539.931
547.123
554.031
560.631
566.898
572.804
578.318
583.403
588.021
592.139
595.723
598.741
601.164
602.964
604.124
604.632
604.482
603.655
602.131
599.887
596.892
593.116
588.531
583.099
576.792
569.595
561.498
552.511
542.664
531.975
520.463
508.14
494.996
481.05
466.354
450.953
434.931
418.406
401.517
384.47
367.493
350.749
334.382
318.49
303.088
288.217
273.906
260.159
247.069
234.702
223.076
212.25
202.251
193.02
184.471
176.407
168.525
160.664
152.748
144.778
136.942
129.416
122.391
116.138
110.821
106.611
103.764
102.464
102.886
105.335
110.135
117.737
128.807
143.809
163.03
186.639
214.55
246.653
282.84
322.891
366.588
413.664
463.705
516.315
571.133
627.611
685.133
742.912
799.858
855.059
907.822
957.561
1003.891
1046.436
1084.749
1118.451
1147.29
1171.101
1189.862
1203.59
1212.261
1216.039
1215.231
1210.341
1202.148
1191.301
1178.257
1163.399
1147.022
1129.452
1111.123
1092.45
1073.699
1055.075
1036.726
1018.774
1001.394
984.639
968.424
952.521
936.56
920.282
903.566
886.349
868.601
850.27
831.255
811.474
790.96
769.755
747.896
725.419
702.323
678.665
654.583
630.277
605.979
581.855
558.004
534.492
511.371
488.686
466.478
444.756
423.474
402.599
382.11
361.993
342.243
322.833
303.706
284.79
266.015
247.322
228.663
209.996
191.275
172.464
153.534
134.474
115.279
95.937
76.432
56.744
36.854
16.748
-3.582
-24.145
-44.948
-65.991
-87.269
-108.769
-130.476
-152.368
-174.425
-196.622
-218.928
-241.312
-263.737
-286.163
-308.549
-330.85
-353.019
-375.006
-396.76
-418.231
-439.367
-460.118
-480.431
-500.257
-519.548
-538.257
-556.339
-573.752
-590.451
-606.399
-621.558
-635.894
-649.377
-661.981
-673.681
-684.461
-694.307
-703.215
-711.181
-718.21
-724.309
-729.492
-733.776
-737.186
-739.747
-741.492
-742.455
-742.676
-742.199
-741.069
-739.336
-737.051
-734.267
-731.039
-727.422
-723.473
-719.245
-714.796
-710.177
-705.442
-700.641
-695.82
-691.025
-686.295
-681.666
-677.169
-672.83
-668.667
-664.695
-660.921
-657.346
-653.964
-650.764
-647.729
-644.833
-642.05
-639.342
-636.67
-633.989
-631.248
-628.394
-625.368
-622.109
-618.554
-614.637
-610.292
-605.45
-600.045
-594.01
-587.278
-579.786
-571.473
-562.281
-552.156
-541.049
-528.917
-515.723
-501.436
-486.034
-469.501
-451.831
-433.025
-413.091
-392.048
-369.922
-346.745
-322.561
-297.418
-271.373
-244.491
-216.841
-188.5
-159.55
-130.079
-100.179
-69.946
-39.477
-8.874
21.758
52.316
82.693
112.784
142.484
171.688
200.294
228.203
255.319
281.548
306.805
331.006
354.076
375.944
396.547
415.827
433.735
450.225
465.262
478.815
490.86
501.38
510.363
517.806
523.708
528.077
530.922
532.261
532.114
530.505
527.463
523.019
517.208
510.068
501.639
491.964
481.089
469.06
455.925
441.734
426.537
410.385
393.327
375.413
356.693
337.217
317.032
296.187
274.728
252.701
230.153
207.129
183.674
159.832
135.647
111.165
86.43
61.487
36.381
11.159
-14.132
-39.444
-64.728
-89.934
-115.013
-139.913
-164.583
-188.972
-213.027
-236.697
-259.93
-282.674
-304.876
-326.486
-347.453
-367.724
-387.251
-405.985
-423.877
-440.881
-456.953
-472.05
-486.131
-499.16
-511.1
-521.922
-531.596
-540.098
-547.409
-553.514
-558.402
-562.067
-564.509
-565.733
-565.75
-564.575
-562.229
-558.737
-554.13
-548.444
-541.719
-533.999
-525.334
-515.775
-505.38
-494.209
-482.325
-469.793
-456.682
-443.064
-429.009
-414.592
-399.888
-384.97
-369.914
-354.795
-339.687
-324.661
-309.79
-295.141
-280.78
-266.77
-253.168
-240.03
-227.406
-215.341
-203.876
-193.045
-182.88
-173.404
-164.637
-156.592
-149.276
-142.692
-136.836
-131.699
-127.267
-123.521
-120.436
-117.985
-116.134
-114.846
-114.081
-113.794
-113.939
-114.466
-115.321
-116.45
-117.797
-119.305
-120.916
-122.57
-124.211
-125.78
-127.222
-128.481
-129.506
-130.245
-130.652
-130.681
-130.292
-129.448
-128.114
-126.264
-123.873
-120.922
-117.398
-113.29
-108.593
-103.309
-97.44
-90.994
-83.984
-76.423
-68.332
-59.733
-50.654
-41.123
-31.175
-20.843
-10.167
0.815
12.061
23.53
35.179
46.963
58.84
70.766
82.698
94.593
106.41
118.11
129.654
141.01
152.147
163.04
173.664
184
194.032
203.75
213.149
222.227
230.985
239.423
247.548
255.364
262.885
270.129
277.113
283.857
290.382
296.706
302.864
308.891
314.821
320.684
326.503
332.297
338.087
343.903
349.764
355.692
361.701
367.787
373.955
380.201
386.535
392.962
399.439
405.914
412.317
418.568
424.668
430.62
436.389
441.939
447.205
452.058
456.547
460.78
464.538
467.673
470.015
471.223
471.471
471.098
469.893
467.7
465.046
462.082
459.114
457.011
455.338
453.476
451.875
450.237
447.142
442.045
434.191
422.007
405.807
385.869
361.017
331.902
300.769
268.686
236.915
207.331
179.955
155.284
135.33
119.793
106.736
95.22
84.048
71.904
58.784
43.904
25.45
3.44
-20.966
-47.086
-73.981
-100.945
-127.911
-154.168
-178.608
-201.055
-221.913
-241.462
-259.909
-277.062
-292.389
-305.558
-316.465
-324.89
-330.362
-332.422
-330.824
-325.573
-316.98
-305.522
-291.448
-274.79
-255.656
-234.252
-210.974
-186.441
-161.236
-135.841
-110.73
-86.381
-63.392
-42.406
-23.83
-7.883
5.315
15.789
23.39
27.731
28.6
25.977
19.986
11.022
-0.468
-14.21
-29.912
-47.224
-65.799
-85.226
-105.206
-125.609
-146.31
-167.18
-187.97
-208.24
-227.653
-246.064
-263.403
-279.776
-295.368
-310.211
-324.344
-337.863
-350.793
-363.164
-374.973
-386.088
-396.382
-405.795
-414.323
-422.058
-429.08
-435.366
-440.864
-445.476
-449.054
-451.524
-452.818
-452.845
-451.569
-448.991
-445.13
-440.078
-433.953
-426.833
-418.79
-409.882
-400.16
-389.701
-378.602
-366.957
-354.875
-342.461
-329.822
-317.072
-304.319
-291.649
-279.138
-266.843
-254.805
-243.068
-231.672
-220.647
-210.025
-199.832
-190.083
-180.794
-171.975
-163.625
-155.731
-148.275
-141.225
-134.548
-128.203
-122.147
-116.33
-110.703
-105.212
-99.803
-94.419
-89.005
-83.505
-77.864
-72.028
-65.944
-59.566
-52.847
-45.747
-38.232
-30.27
-21.837
-12.915
-3.49
6.446
16.894
27.853
39.314
51.267
63.696
76.582
89.901
103.624
117.719
132.148
146.872
161.849
177.034
192.381
207.845
223.381
238.943
254.49
269.98
285.375
300.639
315.739
330.646
345.336
359.788
373.984
387.914
401.57
414.95
428.056
440.895
453.475
465.81
477.918
489.818
501.53
513.08
524.494
535.8
547.027
558.207
569.372
580.554
591.786
603.1
614.528
626.1
637.844
649.785
661.947
674.348
687.006
699.934
713.139
726.628
740.4
754.451
768.773
783.354
798.175
813.216
828.45
843.85
859.381
875.01
890.697
906.403
922.085
937.698
953.195
968.529
983.649
998.505
1013.045
1027.215
1040.962
1054.232
1066.972
1079.129
1090.65
1101.485
1111.584
1120.899
1129.384
1136.995
1143.693
1149.438
1154.195
1157.932
1160.62
1162.234
1162.752
1162.155
1160.428
1157.559
1153.537
1148.358
1142.017
1134.514
1125.852
1116.035
1105.072
1092.975
1079.757
1065.436
1050.034
1033.574
1016.084
997.593
978.134
957.742
936.456
914.314
891.359
867.633
843.181
818.05
792.285
765.932
739.041
711.656
683.825
655.593
627.005
598.106
568.938
539.543
509.963
480.235
450.4
420.492
390.548
360.599
330.675
300.806
271.016
241.328
211.76
182.33
153.051
123.932
94.981
66.202
37.597
9.165
-19.098
-47.195
-75.133
-102.92
-130.565
-158.076
-185.461
-212.729
-239.887
-266.94
-293.893
-320.749
-347.508
-374.168
-400.726
-427.176
-453.508
-479.71
-505.769
-531.666
-557.381
-582.888
-608.159
-633.163
-657.864
-682.223
-706.195
-729.736
-752.793
-775.315
-797.246
-818.527
-839.098
-858.897
-877.86
-895.925
-913.028
-929.106
-944.098
-957.945
-970.59
-981.981
-992.068
-1000.805
-1008.152
-1014.073
-1018.536
-1021.517
-1022.994
-1022.953
-1021.385
-1018.289
-1013.668
-1007.531
-999.895
-990.782
-980.222
-968.25
-954.908
-940.243
-924.308
-907.162
-888.868
-869.497
-849.121
-827.818
-805.669
-782.758
-759.173
-735
-710.331
-685.255
-659.861
-634.238
-608.475
-582.656
-556.867
-531.187
-505.695
-480.467
-455.575
-431.087
-407.068
-383.58
-360.678
-338.415
-316.841
-295.998
-275.929
-256.668
-238.247
-220.694
-204.034
-188.285
-173.465
-159.584
-146.652
-134.672
-123.646
-113.571
-104.443
-96.253
-88.99
-82.643
-77.197
-72.635
-68.942
-66.099
-64.085
-62.881
-62.464
-62.814
-63.906
-65.716
-68.222
-71.397
-75.216
-79.654
-84.683
-90.276
-96.405
-103.04
-110.153
-117.711
-125.684
-134.04
-142.744
-151.766
-161.07
-170.625
-180.397
-190.354
-200.461
-210.688
-221.002
-231.372
-241.766
-252.154
-262.508
-272.798
-282.998
-293.081
-303.024
-312.803
-322.397
-331.787
-340.954
-349.884
-358.561
-366.976
-375.116
-382.977
-390.552
-397.84
-404.841
-411.557
-417.995
-424.162
-430.066
-435.721
-441.137
-446.33
-451.316
-456.112
-460.734
-465.202
-469.534
-473.751
-477.871
-481.913
-485.898
-489.843
-493.766
-497.685
-501.615
-505.57
-509.566
-513.614
-517.726
-521.912
-526.181
-530.54
-534.995
-539.55
-544.209
-548.971
-553.837
-558.805
-563.872
-569.033
-574.282
-579.614
-585.022
-590.496
-596.03
-601.612
-607.235
-612.886
-618.556
-624.233
-629.906
-635.563
-641.191
-646.779
-652.313
-657.781
-663.169
-668.463
-673.649
-678.712
-683.635
-688.402
-692.996
-697.399
-701.592
-705.555
-709.266
-712.706
-715.852
-718.679
-721.164
-723.281
-725.002
-726.301
-727.148
-727.514
-727.369
-726.68
-725.418
-723.551
-721.048
-717.878
-714.012
-709.42
-704.076
-697.953
-691.028
-683.278
-674.686
-665.236
-654.914
-643.712
-631.624
-618.648
-604.788
-590.048
-574.441
-557.98
-540.683
-522.576
-503.683
-484.038
-463.676
-442.636
-420.963
-398.705
-375.913
-352.643
-328.953
-304.903
-280.558
-255.981
-231.24
-206.401
-181.534
-156.704
-131.979
-107.426
-83.106
-59.083
-35.415
-12.157
10.641
32.929
54.667
75.816
96.343
116.22
135.424
153.937
171.746
188.844
205.229
220.903
235.875
250.159
263.772
276.738
289.085
300.846
312.057
322.76
332.998
342.818
352.27
361.407
370.281
378.948
387.464
395.884
404.264
412.657
421.116
429.691
438.429
447.372
456.562
466.035
475.82
485.948
496.439
507.313
518.583
530.258
542.341
554.83
567.719
580.995
594.639
608.628
622.935
637.524
652.357
667.39
682.574
697.856
713.176
728.473
743.678
758.722
773.528
788.021
802.12
815.745
828.814
841.246
852.958
863.871
873.907
882.989
891.042
897.995
903.779
908.328
911.582
913.485
913.984
913.036
910.602
906.649
901.151
894.089
885.45
875.228
863.426
850.052
835.124
818.668
800.717
781.315
760.516
738.381
714.981
690.394
664.704
638.002
610.385
581.955
552.817
523.079
492.855
462.258
431.408
400.426
369.432
338.55
307.899
277.599
247.764
218.503
189.922
162.122
135.196
109.237
84.328
60.551
37.979
16.68
-3.286
-21.87
-39.029
-54.735
-68.972
-81.734
-93.025
-102.859
-111.257
-118.251
-123.878
-128.183
-131.214
-133.023
-133.667
-133.212
-131.735
-129.315
-126.039
-122.002
-117.304
-112.047
-106.337
-100.272
-93.939
-87.42
-80.79
-74.119
-67.472
-60.917
-54.527
-48.378
-42.553
-37.138
-32.223
-27.875
-24.143
-21.039
-18.547
-16.658
-15.372
-14.708
-14.71
-15.455
-17.062
-19.666
-23.405
-28.37
-34.604
-42.069
-50.671
-60.307
-70.838
-82.197
-94.399
-107.447
-121.355
-136.083
-151.502
-167.387
-183.42
-199.186
-214.213
-228.102
-240.507
-251.291
-260.483
-268.187
-274.665
-280.046
-284.357
-287.688
-290.107
-291.803
-293.135
-294.469
-296.283
-299.368
-304.377
-311.755
-321.832
-334.204
-348.346
-364.262
-381.651
-400.302
-420.865
-443.924
-470.326
-501.907
-539.563
-582.453
-629.416
-678.224
-725.216
-767.393
-801.431
-822.972
-829.317
-819.869
-795.116
-757.381
-710.38
-656.78
-599.293
-541.572
-486.149
-434.519
-387.452
-344.135
-302.925
-263.164
-224.645
-186.838
-149.764
-113.569
-78.283
-44.634
-13.654
14.192
38.841
60.416
79.475
96.603
112.058
126.213
139.484
152.107
164.326
176.211
187.581
198.273
208.197
217.275
225.397
232.321
237.723
241.483
243.677
244.263
243.018
239.319
232.489
222.445
209.116
192.042
170.248
142.593
108.871
70.431
29.343
-13.045
-55.527
-96.563
-133.749
-163.895
-185.227
-198.334
-205.243
-207.643
-206.667
-203.313
-199.183
-196.796
-197.788
-202.034
-208.094
-214.584
-220.937
-227.125
-233.226
-238.949
-244.026
-248.757
-254.004
-260.561
-268.73
-278.422
-289.176
-300.502
-312.152
-323.893
-335.454
-346.65
-357.302
-367.26
-376.474
-384.87
-392.331
-398.744
-403.963
-407.835
-410.298
-411.36
-411.13
-409.8
-407.493
-404.242
-400.032
-394.826
-388.629
-381.461
-373.318
-364.176
-354.027
-342.946
-331.096
-318.651
-305.758
-292.474
-278.745
-264.532
-249.835
-234.669
-219.082
-203.045
-186.409
-169.077
-151.017
-132.189
-112.577
-92.036
-70.218
-46.83
-21.662
5.365
34.153
64.63
96.785
130.527
165.664
201.831
238.444
275.012
311.221
346.701
381.093
413.895
444.323
471.665
495.365
514.947
530.039
540.3
545.306
544.771
538.741
527.474
511.468
491.187
466.893
438.951
407.804
373.999
338.29
301.466
264.25
227.478
192.146
159.176
129.569
104.245
83.726
68.41
58.519
54.165
55.531
62.682
75.546
94.068
118.187
147.663
182.182
221.117
263.433
308.292
354.829
402.038
449.124
495.172
539.17
580.409
618.385
652.278
681.087
704.275
721.416
732.135
737.157
736.211
727.142
711.606
693.184
676.693
673.302
686.356
708.236
729.971
731.471
697.036
631.322
542.05
450.018
384.809
357.186
373.351
428.404
496.348
556.417
589.782
585.446
551.871
502.15
452.054
410.567
380.185
363.137
356.492
363.059
381.258
400.259
414.111
414.652
399.582
377.593
354.061
333.183
317.121
302.619
288.082
273.78
259.644
246.349
234.229
222.856
212.045
201.861
192.274
183.216
174.778
167.096
159.911
152.831
145.857
138.797
131.439
124.22
115.438
103.253
89.345
74.057
60.999
54.723
50.328
44.512
32.443
7.515
-23.977
-56.41
-85.85
-106.217
-121.182
-134.531
-146.653
-159.253
-170.139
-176.825
-179.181
-176.716
-169.303
-156.992
-139.343
-116.161
-87.778
-54.793
-17.707
23.044
66.911
113.381
161.772
211.125
260.576
309.271
356.288
400.835
442.13
479.397
511.924
539.09
560.692
576.961
588.318
595.575
599.515
600.248
597.908
592.772
584.41
572.454
556.399
534.569
505.871
470.892
430.696
387.185
343.493
301.936
264.868
235.982
217.772
210.832
214.903
227.779
245.739
266.158
286.493
303.415
314.859
319.867
318.075
310.873
300.665
288.904
276.805
265.729
256.26
248.761
243.484
239.864
237.021
234.594
232.451
230.553
229.12
228.232
227.86
228.14
229.206
231.065
233.645
236.796
240.325
244.112
248.091
252.196
256.377
260.562
264.666
268.618
272.359
275.84
279.022
281.869
284.356
286.468
288.204
289.566
290.55
291.139
291.306
291.027
290.274
289.028
287.276
284.999
282.186
278.852
275.012
270.681
265.883
260.612
254.854
248.647
242.033
234.977
227.461
219.478
211.003
202.101
192.881
183.317
173.347
163.21
153.182
143.133
133.103
123.163
112.788
103.486
96.726
90.469
84.111
73.883
55.266
33.297
11.336
-5.62
-10.715
-9.989
-8.565
-9.947
-19.937
-34.378
-49.058
-63.045
-73.78
-82.759
-91.9
-100.845
-109.844
-118.771
-127.24
-135.498
-143.74
-151.893
-159.941
-167.906
-175.789
-183.579
-191.278
-198.867
-206.32
-213.664
-220.921
-228.073
-235.105
-241.996
-248.722
-255.255
-261.577
-267.668
-273.507
-279.103
-284.472
-289.609
-294.503
-299.121
-303.395
-307.289
-310.789
-313.866
-316.529
-318.824
-320.821
-322.673
-324.556
-326.57
-328.785
-331.217
-333.791
-336.469
-339.19
-341.838
-344.388
-346.797
-348.992
-351.004
-352.802
-354.217
-355.031
-354.878
-353.293
-350.012
-344.845
-337.607
-328.335
-317.095
-304.053
-289.635
-274.173
-257.924
-241.164
-224.033
-206.748
-189.818
-173.84
-159.485
-147.576
-138.685
-133.289
-132.01
-135.166
-142.885
-155.098
-171.307
-191.037
-214.012
-239.973
-268.629
-299.543
-331.879
-364.633
-396.913
-427.709
-456.128
-481.317
-502.178
-517.88
-527.944
-532.156
-530.619
-523.449
-510.521
-491.647
-466.975
-436.937
-402.299
-364.09
-323.244
-280.768
-237.731
-195.253
-154.516
-116.407
-81.529
-50.096
-21.869
3.228
24.633
41.591
53.544
61.283
67.256
73.099
77.713
74.544
54.845
13.754
-46.583
-109.866
-155.678
-170.782
-150.352
-111.641
-80.04
-71.822
-97.732
-147.252
-198.63
-238.963
-258.091
-258.317
-251.869
-245.033
-242.178
-244.246
-247.358
-250.205
-253.069
-255.887
-259.395
-263.82
-268.63
-273.6
-278.735
-283.965
-289.215
-294.458
-299.569
-304.346
-308.73
-312.668
-316.078
-318.965
-321.325
-323.118
-324.344
-325.022
-325.144
-324.707
-323.71
-322.131
-319.98
-317.299
-314.146
-310.584
-306.652
-302.357
-297.679
-292.613
-287.169
-281.38
-275.298
-269.003
-262.618
-256.278
-250.128
-244.265
-238.742
-233.557
-228.65
-223.959
-219.41
-214.978
-210.702
-206.609
-202.698
-198.929
-195.214
-191.362
-187.121
-182.2
-176.276
-169.157
-160.749
-151.084
-140.317
-128.597
-116.159
-103.23
-89.949
-76.511
-63.136
-49.897
-36.955
-24.817
-13.827
-4.248
3.714
10.565
16.887
22.572
27.542
32.023
35.64
37.591
36.917
31.485
19.029
1.025
-20.494
-45.967
-72.827
-102.405
-136.665
-166.324
-185.001
-186.64
-164.277
-126.503
-82.772
-39.61
-5.598
20.234
40.17
54.25
64.801
71.789
75.914
79.093
82.141
86.431
92.802
101.271
111.895
124.123
136.984
149.981
162.86
175.503
188.085
200.641
213.087
225.455
237.78
250.058
262.271
274.313
286.029
297.326
308.149
318.46
328.246
337.464
346.053
353.968
361.172
367.645
373.389
378.419
382.775
386.502
389.657
392.298
394.472
396.219
397.564
398.51
399.055
399.191
398.911
398.219
397.12
395.628
393.79
391.632
389.17
386.399
383.272
379.761
375.884
371.661
367.121
362.333
357.358
352.311
347.404
342.813
338.699
335.175
332.212
329.801
327.983
326.841
326.535
327.11
328.412
330.219
332.327
334.549
336.818
338.881
340.096
340.068
338.615
335.94
332.871
329.728
326.094
321.529
315.617
307.876
298.177
285.687
268.411
245.761
218.581
188.455
158.23
130.519
107.073
90.667
85.025
92.042
112.136
144.343
185.643
233.553
286.425
341.612
396.172
448.283
496.905
542.308
586.04
628.773
670.405
710.999
750.383
788.156
823.713
855.701
882.525
903.24
917.398
924.903
925.801
920.104
907.918
889.527
865.293
835.497
800.399
760.39
716.158
668.477
618.1
565.854
512.404
458.423
404.717
351.921
300.511
250.887
203.368
158.321
116.329
78.033
43.818
13.804
-12.115
-34.062
-51.972
-65.765
-75.559
-81.754
-84.913
-85.537
-83.944
-80.39
-75.339
-69.455
-63.518
-58.311
-54.327
-51.84
-51.255
-53.1
-58.013
-66.714
-79.571
-96.597
-117.848
-143.386
-173.235
-207.375
-245.365
-286.417
-329.878
-375.213
-421.977
-469.792
-517.887
-565.186
-610.731
-653.552
-692.881
-728.178
-758.616
-783.325
-801.746
-813.513
-818.649
-817.534
-810.261
-796.722
-777.033
-751.424
-720.564
-685.544
-647.201
-606.285
-563.633
-520.071
-476.779
-435.101
-395.956
-359.97
-327.616
-299.146
-275.09
-256.204
-242.86
-235.203
-233.088
-236
-243.634
-255.8
-272.052
-291.809
-314.231
-338.281
-363.272
-388.813
-414.491
-439.954
-464.678
-487.953
-509.374
-528.759
-546.029
-561.287
-574.535
-585.69
-594.878
-602.374
-608.594
-614.054
-619.072
-623.75
-628.152
-632.341
-636.478
-640.811
-645.489
-650.542
-655.806
-661.025
-666.263
-671.613
-677.157
-683.01
-688.73
-693.685
-697.795
-701.164
-703.462
-704.379
-703.119
-698.353
-689.964
-678.601
-664.662
-648.814
-632.191
-615.745
-601.153
-591.156
-587.282
-589.594
-597.548
-609.48
-623.018
-636.364
-647.46
-653.089
-650.678
-639.326
-619.319
-592.643
-562.373
-530.644
-499.133
-470.228
-446.138
-427.993
-416.022
-408.977
-404.526
-401.201
-398.231
-394.693
-389.777
-382.941
-373.866
-362.964
-351.244
-339.267
-327.199
-315.103
-302.87
-290.518
-278.18
-265.818
-253.276
-240.47
-227.336
-213.909
-200.342
-186.614
-172.609
-158.272
-143.515
-128.347
-112.976
-97.562
-82.194
-67.305
-53.546
-41.008
-29.517
-19.125
-9.108
-0.03
5.567
8.994
13.225
22.32
46.007
86.051
134.386
182.094
210.083
204.379
170.175
114.534
55.622
18.229
7.548
27.321
77.192
138.542
201.054
251.324
268.226
251.223
204.864
141.117
86.856
54.412
45.1
54.471
64.983
66.028
58.638
44.386
31.88
28.236
27.57
26.216
18.873
-1.211
-26.958
-52.866
-75.241
-87.888
-94.71
-99.202
-102.02
-106.191
-110.559
-113.657
-116.566
-119.494
-123.812
-132.325
-146.047
-164.933
-188.44
-214.476
-240.626
-265.147
-285.607
-298.381
-301.089
-292.211
-271.403
-241.23
-204.87
-164.822
-124.105
-86.32
-53.976
-29.823
-14.368
-3.608
4.163
9.34
10.1
-0.088
-18.798
-37.569
-47.968
-36.033
-1.613
45.912
100.786
147.798
181.507
204.769
215.004
221.337
230.205
242.469
263.096
288.2
313.292
337.654
358.77
377.808
396.557
414.661
432.133
448.441
463.29
477.427
491.493
505.979
520.853
535.303
549.007
562.219
574.521
585.11
593.037
596.826
596.45
593.648
589.366
583.844
577.902
572.346
568.409
568.315
572.267
578.203
584.879
591.566
597.408
602.111
604.782
603.527
598.129
590.079
580.367
569.822
559.022
547.819
536.549
526.167
516.846
508.077
499.499
490.697
481.524
472.276
463.028
453.648
444.146
434.59
425.058
415.691
406.527
397.485
388.522
379.61
370.739
361.944
353.238
344.616
336.073
327.595
319.172
310.796
302.456
294.14
285.835
277.52
269.177
260.789
252.336
243.803
235.161
226.374
217.405
208.219
198.78
189.061
179.034
168.672
157.943
146.813
135.248
123.225
110.723
97.735
84.248
70.238
55.707
40.682
25.19
9.264
-7.088
-23.905
-41.186
-58.874
-76.988
-95.607
-114.774
-134.55
-154.923
-175.741
-196.956
-218.684
-240.727
-262.532
-283.968
-305.121
-325.866
-346.704
-366.438
-381.827
-393.62
-404.566
-419.522
-447.4
-487.091
-529.505
-565.38
-581.738
-578.298
-567.038
-557.219
-559.001
-573.557
-591.865
-608.7
-620.184
-625.283
-627.357
-627.191
-624.424
-619.498
-612.21
-602.958
-592.978
-582.918
-573.894
-568.311
-567.43
-571.397
-579.959
-591.598
-604.605
-617.881
-629.157
-634.3
-630.16
-614.502
-585.934
-545.693
-495.19
-435.42
-369.018
-300.484
-234.801
-177.118
-131.355
-98.263
-78.235
-71.529
-76.956
-92.24
-112.826
-132.719
-147.384
-154.78
-153.464
-142.624
-121.997
-91.334
-53.246
-12.292
28.284
66.54
101.233
131.936
157.894
177.749
192.162
203.262
212.418
220.621
228.291
235.166
241.54
248.258
255.37
262.325
268.786
274.409
279.18
283.472
287.381
290.789
293.696
296.17
298.297
300.224
302.001
303.531
304.76
305.652
306.183
306.396
306.328
305.944
305.216
304.2
302.946
301.505
299.949
298.248
296.323
294.226
292.053
289.577
286.531
283.093
279.249
274.941
270.763
265.105
256.401
246.897
237.273
231.641
234.927
241.69
248.312
249.4
237.543
219.321
200.316
184.357
177.769
176.066
174.705
172.694
167.276
160.092
153.249
146.38
139.78
133.34
126.668
120.071
113.798
107.807
102.111
96.764
91.787
87.19
82.99
79.168
75.697
72.614
69.954
67.723
65.931
64.585
63.685
63.238
63.25
63.715
64.624
65.972
67.748
69.942
72.542
75.532
78.899
82.624
86.689
91.077
95.767
100.743
105.984
111.474
117.195
123.127
129.257
135.566
142.041
148.666
155.427
162.311
169.309
176.412
183.614
190.91
198.3
205.783
213.362
221.04
228.822
236.712
244.711
252.822
261.047
269.389
277.851
286.434
295.141
303.97
312.923
321.997
331.186
340.481
349.869
359.333
368.854
378.411
387.98
397.534
407.042
416.477
425.806
434.997
444.011
452.806
461.337
469.552
477.399
484.817
491.745
498.116
503.872
508.954
513.308
516.887
519.646
521.543
522.541
522.598
521.671
519.713
516.672
512.497
507.141
500.569
492.76
483.7
473.386
461.834
449.078
435.152
420.084
403.883
386.536
368.055
348.478
327.875
306.34
284.003
261.032
237.618
213.977
190.294
166.715
143.314
120.104
97.092
74.271
51.703
29.496
7.728
-13.54
-34.27
-54.438
-74.083
-93.343
-112.451
-131.71
-151.324
-171.401
-191.91
-212.705
-233.625
-254.409
-274.82
-294.657
-313.67
-331.641
-348.365
-363.646
-377.21
-388.647
-397.43
-402.966
-404.846
-402.783
-396.63
-386.36
-371.955
-353.635
-331.739
-306.628
-278.745
-248.497
-216.309
-182.655
-148.088
-113.206
-78.66
-45.136
-13.177
16.631
43.841
68.244
89.339
106.663
119.925
128.678
132.883
133.092
129.568
122.247
111.805
99.209
85.512
72.43
60.576
49.249
38.182
27.243
15.574
2.02
-15.158
-38.502
-69.199
-106.956
-151.123
-200.282
-252.239
-304.255
-352.851
-394.206
-425.132
-443.204
-447.463
-438.421
-417.678
-387.945
-351.866
-311.757
-270.263
-230.043
-192.531
-158.144
-126.135
-94.809
-63.592
-32.733
-2.318
27.53
56.577
84.269
109.134
129.228
143.421
151.205
152.461
147.329
135.598
117.069
91.94
60.829
24.683
-15.566
-59.167
-105.408
-153.448
-202.134
-249.97
-295.728
-338.682
-378.138
-413.472
-444.153
-469.495
-489.366
-504.363
-514.819
-520.765
-522.228
-519.059
-511.091
-498.458
-480.657
-456.446
-425.636
-389.053
-348.264
-305.794
-264.013
-224.769
-190.756
-165.476
-150.75
-146.812
-152.398
-164.438
-180.456
-198.924
-217.502
-233.282
-244.532
-250.518
-251.902
-251
-249.263
-247.145
-245.386
-244.727
-245.669
-248.633
-253.307
-258.626
-264.056
-269.555
-275.201
-281.292
-287.942
-295.055
-302.687
-311.021
-320.145
-330.125
-340.914
-352.291
-364.092
-376.33
-389.005
-401.932
-414.992
-427.658
-439.267
-450.184
-460.728
-470.624
-480.287
-488.574
-494.149
-499.774
-506.889
-518.694
-539.046
-562.585
-585.484
-601.829
-604.113
-597.697
-586.805
-576.127
-572.826
-572.675
-571.749
-569.364
-562.792
-554.528
-547.567
-540.79
-533.776
-526.155
-516.998
-506.608
-495.397
-482.855
-468.571
-452.907
-436.126
-418.411
-400.085
-381.039
-361.126
-340.51
-319.306
-297.516
-275.192
-252.338
-228.938
-205.103
-180.936
-156.501
-131.88
-107.114
-82.234
-57.285
-32.304
-7.331
17.582
42.386
67.031
91.477
115.699
139.677
163.388
186.811
209.923
232.707
255.146
277.215
298.876
320.081
340.775
360.916
380.469
399.431
417.827
435.627
452.744
469.046
484.38
498.673
511.96
524.277
535.581
545.867
555.148
563.534
571.303
578.494
584.712
589.328
591.835
591.94
589.656
585.492
579.746
572.612
565.368
558.54
550.941
543.907
539.207
539.78
553.317
578.669
606.357
625.901
622.483
594.3
553.845
511.905
479.594
459.435
443.522
428.625
412.621
393.205
373.071
354.19
341.684
344.915
366.7
400.654
432.068
445.322
434.284
404.336
367.022
329.563
292.821
257.636
229.614
218.729
233.286
270.474
314.482
349.663
367.962
370.62
368.208
368.705
373.365
381.318
390.11
398.459
407.118
416.747
427.579
439.996
454.99
473.008
493.289
515.023
537.263
558.602
578.209
594.882
606.003
609.738
606.033
595.137
578.272
557.841
534.981
511.129
489.864
473.754
463.753
460.906
464.329
471.837
483.561
499.101
515.504
530.526
541.969
546.659
543.854
533.758
514.15
483.826
443.739
394.794
339.577
282.181
224.597
168.289
116.139
69.854
30.051
-2.846
-30.326
-54.987
-78.126
-100.719
-124.029
-148.472
-174.291
-201.693
-229.894
-257.728
-284.562
-309.932
-333.541
-355.45
-375.589
-393.812
-410.18
-424.766
-437.56
-448.53
-457.553
-464.461
-469.171
-471.66
-471.947
-470.089
-466.145
-460.174
-452.243
-442.428
-430.82
-417.519
-402.63
-386.272
-368.572
-349.665
-329.701
-308.83
-287.2
-264.953
-242.225
-219.143
-195.842
-172.459
-149.13
-125.993
-103.179
-80.815
-59.026
-37.929
-17.634
1.755
20.147
37.458
53.612
68.542
82.19
94.507
105.454
115.004
123.138
129.848
135.136
139.009
141.489
142.602
142.382
140.874
138.125
134.193
129.139
123.033
115.947
107.96
99.153
89.612
79.424
68.68
57.47
45.887
34.022
21.964
9.803
-2.375
-14.487
-26.456
-38.207
-49.672
-60.788
-71.496
-81.748
-91.497
-100.707
-109.344
-117.384
-124.808
-131.602
-137.76
-143.279
-148.166
-152.431
-156.088
-159.159
-161.669
-163.648
-165.128
-166.147
-166.747
-166.969
-166.858
-166.462
-165.83
-165.01
-164.055
-163.013
-161.934
-160.864
-159.849
-158.931
-158.15
-157.542
-157.139
-156.969
-157.057
-157.427
-158.098
-159.087
-160.403
-162.049
-164.023
-166.324
-168.944
-171.876
-175.105
-178.614
-182.383
-186.399
-190.644
-195.103
-199.751
-204.555
-209.483
-214.497
-219.571
-224.69
-229.837
-234.988
-240.123
-245.218
-250.257
-255.232
-260.123
-264.901
-269.536
-273.988
-278.24
-282.293
-286.154
-289.85
-293.366
-296.648
-299.644
-302.285
-304.56
-306.543
-308.258
-309.704
-310.887
-311.744
-312.345
-312.977
-313.578
-313.788
-313.298
-311.663
-308.929
-305.872
-302.801
-299.491
-296.375
-294.239
-293.988
-297.094
-303.601
-311.8
-320.78
-330.323
-339.63
-347.916
-353.976
-355.624
-352.688
-347.244
-340.553
-333.365
-326.55
-320.421
-315.889
-314.852
-317.545
-322.514
-328.794
-335.579
-342.318
-349.172
-355.822
-361.335
-365.548
-368.972
-371.969
-374.954
-378.071
-381.027
-383.741
-386.335
-388.789
-391.022
-392.938
-394.377
-395.278
-395.694
-395.636
-395.099
-394.056
-392.433
-390.176
-387.248
-383.608
-379.227
-374.07
-368.103
-361.292
-353.609
-345.028
-335.533
-325.105
-313.73
-301.394
-288.088
-273.816
-258.597
-242.453
-225.411
-207.501
-188.754
-169.208
-148.908
-127.904
-106.249
-84.001
-61.221
-37.974
-14.33
9.636
33.848
58.228
82.698
107.178
131.586
155.843
179.867
203.579
226.903
249.764
272.091
293.818
314.881
335.225
354.797
373.553
391.452
408.462
424.557
439.718
453.935
467.202
479.524
490.911
501.381
510.957
519.672
527.561
534.667
541.037
546.723
551.78
556.271
560.258
563.81
566.994
569.883
572.546
575.057
577.485
579.899
582.366
584.948
587.705
590.693
593.964
597.563
601.532
605.902
610.703
615.954
621.668
627.849
634.491
641.581
649.099
657.015
665.294
673.891
682.756
691.833
701.063
710.382
719.721
729.003
738.15
747.079
755.705
763.941
771.702
778.898
785.443
791.252
796.243
800.339
803.465
805.546
806.514
806.305
804.86
802.129
798.069
792.642
785.819
777.584
767.93
756.859
744.386
730.529
715.321
698.806
681.032
662.052
641.924
620.709
598.47
575.28
551.209
526.33
500.729
474.502
447.756
420.615
393.194
365.607
337.973
310.404
283.011
255.909
229.181
202.906
177.187
152.137
127.905
104.671
82.545
61.584
41.817
23.227
5.8
-10.459
-25.615
-39.771
-52.982
-65.252
-76.464
-86.439
-95.105
-102.513
-108.84
-114.291
-118.905
-122.583
-125.173
-126.548
-126.699
-125.544
-122.737
-118.005
-111.334
-103.133
-94.427
-85.969
-77.784
-69.735
-61.467
-52.283
-41.659
-28.475
-10.782
12.194
40.125
72.325
107.01
141.991
175.373
204.264
225.434
237.567
240.205
233.316
218.222
196.472
170.235
143.395
119.597
100.915
88.91
84.671
88.573
100.79
119.956
142.807
166.51
189.055
208.88
224.888
235.948
241.206
241.169
237.577
231.825
224.794
216.965
208.501
199.853
191.359
182.761
173.355
162.609
150.358
136.673
121.772
105.701
88.432
70.045
50.71
30.579
9.693
-11.972
-34.478
-57.84
-81.985
-106.825
-132.273
-158.255
-184.708
-211.557
-238.711
-266.076
-293.565
-321.083
-348.521
-375.764
-402.676
-429.127
-454.992
-480.143
-504.468
-527.87
-550.261
-571.566
-591.712
-610.626
-628.248
-644.531
-659.409
-672.828
-684.745
-695.117
-703.942
-711.24
-716.994
-721.194
-723.92
-725.242
-725.233
-723.989
-721.525
-717.817
-712.981
-707.174
-700.25
-692.032
-682.761
-672.512
-661.326
-649.858
-636.681
-620.409
-603.242
-585.907
-572.362
-567.326
-565.735
-564.232
-557.784
-539.447
-515.468
-491.148
-470.125
-458.384
-451.702
-445.795
-439.72
-430.859
-420.741
-411.326
-402.232
-393.701
-385.587
-377.474
-369.604
-362.163
-355.06
-348.251
-341.734
-335.473
-329.425
-323.553
-317.792
-312.074
-306.394
-300.754
-295.135
-289.529
-283.932
-278.338
-272.754
-267.192
-261.658
-256.163
-250.726
-245.368
-240.113
-234.995
-230.048
-225.31
-220.82
-216.615
-212.732
-209.21
-206.082
-203.379
-201.125
-199.34
-198.045
-197.263
-197.012
-197.309
-198.169
-199.607
-201.637
-204.272
-207.507
-211.328
-215.706
-220.6
-225.961
-231.737
-237.858
-244.257
-250.867
-257.616
-264.446
-271.308
-278.131
-284.836
-291.322
-297.465
-303.172
-308.376
-313.005
-317.023
-320.426
-323.239
-325.557
-327.495
-329.099
-330.386
-331.324
-331.804
-331.75
-331.078
-329.682
-327.544
-324.63
-320.882
-316.31
-310.891
-304.514
-297.031
-288.168
-277.588
-265.148
-250.802
-234.6
-216.795
-197.654
-177.526
-156.909
-136.186
-115.689
-95.762
-76.617
-58.475
-41.701
-26.685
-13.947
-4.117
2.405
5.359
4.564
0.111
-7.818
-18.91
-32.597
-48.394
-65.933
-84.859
-104.949
-126.004
-147.68
-169.626
-191.428
-212.535
-232.534
-251.101
-267.916
-282.862
-295.923
-307.18
-316.928
-325.414
-332.759
-339.045
-344.261
-348.348
-351.318
-353.167
-353.872
-353.504
-352.11
-349.716
-346.386
-342.103
-336.794
-330.357
-322.604
-313.365
-302.555
-290.124
-276.073
-260.452
-243.31
-224.729
-204.843
-183.761
-161.587
-138.431
-114.385
-89.561
-64.102
-38.153
-11.881
14.545
40.968
67.239
93.211
118.753
143.742
168.065
191.631
214.347
236.119
256.854
276.462
294.855
311.959
327.703
342.023
354.866
366.192
375.972
384.193
390.85
395.949
399.507
401.549
402.114
401.246
398.999
395.432
390.614
384.618
377.523
369.411
360.369
350.487
339.855
328.563
316.704
304.368
291.643
278.618
265.377
252.003
238.578
225.182
211.891
198.779
185.917
173.371
161.204
149.47
138.22
127.497
117.336
107.769
98.817
90.499
82.824
75.797
69.418
63.681
58.575
54.084
50.191
46.871
44.1
41.851
40.093
38.798
37.934
37.469
37.372
37.611
38.154
38.971
40.03
41.301
42.752
44.355
46.08
47.899
49.784
51.71
53.652
55.588
57.496
59.358
61.156
62.877
64.505
66.032
67.446
68.74
69.908
70.944
71.844
72.605
73.223
73.696
74.022
74.198
74.224
74.095
73.811
73.369
72.767
72.004
71.077
69.987
68.733
67.317
65.741
64.01
62.127
60.1
57.937
55.647
53.239
50.727
48.124
45.444
42.705
39.924
37.121
34.317
31.535
28.803
26.148
23.591
21.155
18.862
16.74
14.822
13.137
11.713
10.586
9.817
9.483
9.653
10.369
11.644
13.475
15.878
18.819
22.18
25.801
29.58
33.496
37.61
42.033
46.813
52.184
58.76
67.027
76.995
88.392
100.73
114.824
132.933
156.037
182.341
204.408
212.082
198.899
166.061
127.984
104.714
113.523
161.734
236.825
315.743
372.458
388.752
366.793
322.079
278.159
254.004
253.928
272.044
295.238
313.218
323.063
325.833
325.495
324.289
321.985
318.214
312.531
305.088
296.543
287.184
277.041
266.17
254.582
242.272
229.22
215.365
200.675
185.196
169.031
152.265
134.974
117.234
99.126
80.739
62.164
43.484
24.773
6.105
-12.44
-30.786
-48.858
-66.583
-83.895
-100.729
-117.023
-132.72
-147.768
-162.118
-175.727
-188.558
-200.577
-211.759
-222.082
-231.53
-240.094
-247.77
-254.558
-260.466
-265.506
-269.693
-273.049
-275.6
-277.378
-278.416
-278.751
-278.426
-277.483
-275.969
-273.931
-271.418
-268.479
-265.166
-261.529
-257.618
-253.484
-249.176
-244.743
-240.231
-235.685
-231.147
-226.658
-222.253
-217.967
-213.828
-209.863
-206.095
-202.54
-199.214
-196.126
-193.283
-190.686
-188.333
-186.219
-184.333
-182.661
-181.187
-179.888
-178.742
-177.722
-176.799
-175.941
-175.117
-174.29
-173.428
-172.492
-171.447
-170.255
-168.881
-167.287
-165.439
-163.304
-160.848
-158.043
-154.861
-151.278
-147.273
-142.829
-137.93
-132.567
-126.732
-120.423
-113.641
-106.389
-98.677
-90.517
-81.925
-72.922
-63.53
-53.777
-43.693
-33.309
-22.661
-11.786
-0.722
10.492
21.813
33.202
44.617
56.015
67.356
78.6
89.708
100.642
111.369
121.856
132.073
141.994
151.598
160.865
169.78
178.333
186.515
194.325
201.762
208.83
215.539
221.9
227.927
233.641
239.062
244.214
249.124
253.819
258.328
262.682
266.91
271.043
275.11
279.139
283.158
287.191
291.261
295.388
299.589
303.878
308.262
312.747
317.332
322.012
326.777
331.612
336.494
341.399
346.295
351.147
355.913
360.55
365.007
369.232
373.17
376.761
379.944
382.656
384.834
386.414
387.332
387.528
386.939
385.51
383.185
379.915
375.653
370.358
363.995
356.535
347.956
338.242
327.385
315.388
302.258
288.013
272.681
256.297
238.905
220.558
201.318
181.255
160.446
138.976
116.938
94.43
71.557
48.429
25.159
1.866
-21.331
-44.31
-66.95
-89.128
-110.723
-131.618
-151.696
-170.846
-188.96
-205.937
-221.682
-236.104
-249.124
-260.668
-270.673
-279.083
-285.854
-290.951
-294.351
-296.04
-296.014
-294.283
-290.866
-285.791
-279.1
-270.843
-261.081
-249.882
-237.327
-223.502
-208.501
-192.426
-175.383
-157.485
-138.847
-119.588
-99.831
-79.698
-59.313
-38.8
-18.281
2.124
22.295
42.118
61.484
80.284
98.419
115.794
132.319
147.914
162.502
176.017
188.399
199.597
209.566
218.272
225.689
231.797
236.588
240.059
242.215
243.071
242.646
240.966
238.066
233.982
228.759
222.445
215.093
206.757
197.496
187.372
176.445
164.78
152.44
139.491
125.995
112.017
97.618
82.859
67.801
52.499
37.011
21.389
5.683
-10.059
-25.794
-41.479
-57.077
-72.554
-87.876
-103.017
-117.95
-132.651
-147.103
-161.286
-175.185
-188.788
-202.085
-215.065
-227.722
-240.049
-252.041
-263.693
-275.001
-285.96
-296.567
-306.815
-316.701
-326.217
-335.359
-344.12
-352.492
-360.467
-368.036
-375.19
-381.92
-388.212
-394.057
-399.441
-404.352
-408.777
-412.703
-416.117
-419.006
-421.357
-423.16
-424.402
-425.073
-425.163
-424.661
-423.561
-421.855
-419.537
-416.602
-413.048
-408.875
-404.084
-398.678
-392.663
-386.046
-378.837
-371.048
-362.692
-353.785
-344.345
-334.39
-323.943
-313.025
-301.663
-289.881
-277.706
-265.168
-252.293
-239.111
-225.65
-211.94
-198.007
-183.881
-169.588
-155.156
-140.61
-125.976
-111.278
-96.54
-81.783
-67.029
-52.297
-37.603
-22.964
-8.395
6.093
20.489
34.784
48.97
63.041
76.994
90.826
104.535
118.124
131.593
144.947
158.19
171.326
184.362
197.303
210.155
222.923
235.612
248.226
260.768
273.242
285.647
297.985
310.255
322.455
334.579
346.624
358.581
370.442
382.196
393.831
405.333
416.685
427.871
438.872
449.666
460.232
470.546
480.582
490.315
499.716
508.755
517.404
525.63
533.405
540.696
547.474
553.709
559.373
564.439
568.881
572.674
575.798
578.232
579.96
580.968
581.243
580.778
579.567
577.608
574.903
571.455
567.274
562.368
556.753
550.446
543.465
535.835
527.582
518.736
509.327
499.392
488.968
478.095
466.815
455.171
443.21
430.977
418.518
405.883
393.116
380.266
367.377
354.495
341.663
328.922
316.312
303.869
291.628
279.619
267.872
256.411
245.259
234.435
223.956
213.837
204.087
194.716
185.73
177.132
168.922
161.099
153.658
146.592
139.894
133.551
127.552
121.882
116.527
111.472
106.7
102.195
97.942
93.926
90.133
86.55
83.165
79.97
76.955
74.116
71.45
68.956
66.637
64.497
62.544
60.787
59.237
57.907
56.812
55.967
55.386
55.087
55.087
55.404
56.056
57.061
58.436
60.201
62.373
64.971
68.007
71.496
75.449
79.874
84.779
90.166
96.033
102.378
109.196
116.479
124.216
132.392
140.986
149.978
159.34
169.042
179.048
189.319
199.812
210.483
221.287
232.178
243.113
254.043
264.922
275.706
286.351
296.815
307.055
317.03
326.696
336.016
344.959
353.493
361.593
369.234
376.402
383.087
389.288
395.001
400.222
404.951
409.193
412.949
416.227
419.028
421.356
423.23
424.677
425.731
426.442
426.859
427.032
427.019
426.874
426.645
426.375
426.087
425.784
425.479
425.195
424.965
424.849
424.865
425.004
425.265
425.618
426.005
426.336
426.446
426.147
425.318
423.871
421.763
419.022
415.642
411.626
407
401.718
395.772
389.161
381.817
373.698
364.828
355.311
345.417
335.492
325.714
316.2
306.999
298.027
289.245
280.503
271.494
261.994
251.776
240.646
228.532
215.322
200.791
184.617
166.25
145.024
120.465
92.119
59.611
22.743
-18.718
-64.727
-114.918
-168.947
-226.439
-287.047
-350.494
-416.386
-484.159
-553.152
-622.468
-691.05
-757.91
-821.933
-882.068
-937.416
-987.047
-1030.371
-1067.133
-1097.114
-1120.182
-1136.242
-1145.199
-1147.132
-1142.302
-1131.012
-1113.763
-1091.219
-1064.111
-1033.404
-1000.014
-964.75
-928.456
-891.738
-854.999
-818.627
-782.9
-748.023
-714.202
-681.53
-649.996
-619.626
-590.342
-561.967
-534.262
-506.813
-479.27
-451.377
-422.872
-393.612
-363.533
-332.58
-300.786
-268.264
-235.108
-201.442
-167.421
-133.149
-98.766
-64.452
-30.402
3.138
35.961
67.92
98.888
128.778
157.528
185.087
211.446
236.638
260.691
283.642
305.51
326.272
345.928
364.492
381.996
398.522
414.113
428.742
442.463
455.395
467.633
479.279
490.354
500.732
510.39
519.484
527.9
535.178
541.241
546.26
550.203
553.631
555.599
553.089
546.783
539.51
535.909
544.694
565.37
589.25
607.679
608.352
590.5
565.813
543.33
532.809
535.984
544.16
552.006
555.892
554.728
552.084
549.592
547.14
544.859
542.217
539.078
535.918
532.872
529.844
526.831
523.836
520.817
517.725
514.486
510.987
507.168
503.032
498.554
493.691
488.406
482.655
476.4
469.611
462.252
454.275
445.641
436.309
426.243
415.41
403.781
391.328
378.029
363.866
348.827
332.902
316.089
298.395
279.83
260.412
240.165
219.117
197.307
174.778
151.581
127.77
103.404
78.539
53.242
27.584
1.643
-24.498
-50.757
-77.054
-103.307
-129.428
-155.332
-180.934
-206.156
-230.932
-255.196
-278.881
-301.922
-324.239
-345.771
-366.478
-386.328
-405.306
-423.395
-440.567
-456.803
-472.103
-486.465
-499.9
-512.404
-523.942
-534.489
-544.03
-552.576
-560.191
-566.914
-572.747
-577.653
-581.533
-584.362
-586.21
-587.187
-587.441
-587.062
-586.004
-584.379
-582.498
-580.515
-578.521
-576.23
-572.812
-567.955
-561.966
-555.231
-548.413
-542.256
-537.164
-534.599
-537.122
-546.092
-561.996
-584.346
-610.835
-639.374
-668.457
-694.581
-713.348
-721.796
-717.055
-698.378
-668.36
-628.931
-582.236
-533.389
-487.408
-448.619
-422.728
-412.616
-417.851
-439.086
-475.145
-521.38
-573.891
-628.067
-677.036
-716.752
-745.068
-758.628
-756.841
-742.063
-716.134
-682.653
-647.145
-612.843
-582.374
-559.227
-544.629
-538.279
-539.949
-547.711
-558.668
-571.376
-584.554
-596.661
-607.272
-616.229
-623.365
-629.404
-635.317
-641.486
-648.194
-655.628
-663.628
-672.233
-681.617
-691.758
-702.588
-714.055
-726.066
-738.597
-751.751
-765.327
-778.704
-791.436
-803.457
-814.917
-826.29
-836.541
-843.159
-845.487
-845.304
-849.712
-868.647
-906.784
-961.506
-1018.919
-1059.97
-1071.074
-1048.465
-1004.401
-959.776
-935.135
-943.233
-980.887
-1034.451
-1085.276
-1119.016
-1132.642
-1131.098
-1124.621
-1121.033
-1122.438
-1127.839
-1134.103
-1139.573
-1144.519
-1149.172
-1153.948
-1159.179
-1164.781
-1170.659
-1176.685
-1182.296
-1188.368
-1197.674
-1211.612
-1228.561
-1241.446
-1240.034
-1219.322
-1183.896
-1148.799
-1130.918
-1138.468
-1166.924
-1199.333
-1219.221
-1219.502
-1202.387
-1179.87
-1163.819
-1156.243
-1153.157
-1145.774
-1122.649
-1084.506
-1041.007
-1001.874
-980.323
-976.74
-978.342
-975.422
-957.436
-922.499
-880.082
-836.071
-794.534
-756.799
-719.07
-679.607
-638.589
-595.955
-552.359
-508.034
-462.539
-415.804
-368.017
-319.277
-269.676
-219.347
-168.434
-117.104
-65.57
-13.987
37.559
88.953
140.063
190.765
240.932
290.443
339.194
387.073
433.966
479.763
524.367
567.681
609.619
650.101
689.052
726.403
762.095
796.073
828.291
858.711
887.3
914.033
938.891
961.863
982.942
1002.13
1019.433
1034.865
1048.443
1060.193
1070.144
1078.329
1084.788
1089.563
1092.702
1094.256
1094.277
1092.823
1089.95
1085.721
1080.196
1073.44
1065.516
1056.491
1046.427
1035.391
1023.449
1010.666
997.103
982.824
967.887
952.353
936.281
919.729
902.753
885.41
867.751
849.831
831.705
813.423
795.036
776.589
758.121
739.674
721.291
703.017
684.898
666.975
649.282
631.857
614.738
597.96
581.561
565.564
549.979
534.819
520.098
505.841
492.084
478.846
466.131
453.937
442.253
431.078
420.429
410.306
400.698
391.594
382.977
374.861
367.297
360.324
353.981
348.269
343.141
338.596
334.666
331.431
329.037
327.534
326.871
326.987
327.771
329.199
331.409
334.315
337.594
341.107
344.776
348.996
354.758
362.417
371.587
381.805
392.404
402.68
412.235
419.422
421.279
416.017
403.077
383.149
358.381
331.078
303.223
277.934
259.911
251.577
252.661
263.434
282.927
311.895
355.167
408.156
458.448
493.653
497.73
469.125
421.768
367.724
320.589
285.496
256.172
230.107
206.817
186.357
171.565
162.38
155.882
150.399
144.842
138.244
130.237
120.619
109.215
96.591
83.974
71.91
60.444
49.457
38.258
26.467
14.362
2.084
-10.196
-23.355
-39.591
-59.791
-82.27
-100.052
-103.786
-88.504
-55.912
-20.871
-2.852
-13.402
-55.802
-114.039
-163.663
-189.804
-183.685
-154.029
-120.269
-93.961
-83.852
-88.719
-98.573
-107.152
-108.093
-101.037
-92.316
-87.899
-96.337
-117.456
-141.881
-160.708
-162.048
-145.194
-122.02
-101.759
-94.263
-101.375
-114.198
-127.083
-136.057
-139.732
-141.691
-143.681
-145.647
-147.71
-149.498
-151.49
-154.791
-159.71
-165.952
-172.935
-181.614
-194.487
-212.164
-232.377
-247.271
-246.294
-225.724
-189.266
-149.434
-123.283
-118.811
-137.16
-174.602
-220.305
-268.529
-313.544
-342.37
-348.484
-325.218
-271.211
-203.956
-141.661
-103.439
-103.872
-136.879
-187.345
-234.888
-261.996
-265.418
-252.304
-237.158
-229.31
-228.675
-229.289
-219.381
-195.849
-166.431
-142.355
-137.184
-155.667
-189.663
-224.68
-247.503
-251.11
-237.733
-219.062
-203.918
-196.996
-200.624
-209.502
-219.676
-229.916
-238.29
-245.831
-254.964
-268.186
-284.917
-302.229
-314.875
-314.279
-301.607
-285.469
-274.69
-281.667
-306.186
-336.159
-362.308
-374.603
-371.856
-362.835
-352.635
-345.052
-341.531
-339.134
-336.451
-332.989
-327.431
-320.787
-315.699
-312.864
-310.825
-302.502
-277.278
-231.74
-171.586
-111.177
-70.19
-59.09
-74.962
-107.474
-138.237
-149.997
-136.767
-98.315
-41.214
22.037
85.741
150.831
216.339
280.745
338.852
379.379
400.819
412.366
423.475
445.422
480.922
521.944
563.201
601.177
634.922
667.831
700.791
732.885
763.851
793.073
820.551
846.791
871.812
895.455
917.787
938.942
958.96
977.792
995.282
1011.26
1025.681
1038.611
1050.119
1060.244
1069.018
1076.467
1082.63
1087.559
1091.307
1093.919
1095.443
1095.924
1095.41
1093.953
1091.609
1088.433
1084.47
1079.755
1074.311
1068.158
1061.321
1053.823
1045.684
1036.923
1027.551
1017.58
1007.019
995.876
984.157
971.863
958.994
945.549
931.526
916.925
901.746
885.99
869.658
852.753
835.28
817.246
798.663
779.543
759.905
739.769
719.159
698.106
676.641
654.802
632.63
610.17
587.469
564.58
541.558
518.463
495.355
472.296
449.353
426.592
404.082
381.89
360.085
338.729
317.891
297.643
278.049
259.173
241.072
223.792
207.383
191.906
177.39
163.841
151.263
139.648
129.008
119.392
110.802
103.183
96.554
90.992
86.546
83.265
81.117
79.926
79.608
80.243
81.614
83.155
84.7
86.317
87.863
89.816
91.043
88.396
82.576
76.269
74.141
84.863
107.484
133.209
153.168
154.825
137.78
113.676
91.467
80.96
83.458
90.133
95.666
96.294
91.008
83.365
74.891
65.478
55.258
43.734
30.832
17.076
2.618
-12.634
-28.634
-45.295
-62.514
-80.116
-98.008
-116.196
-134.644
-153.307
-172.115
-190.907
-209.651
-228.478
-247.318
-265.991
-283.963
-300.237
-314.363
-326.545
-337.124
-346.655
-355.809
-365.099
-375.921
-390.672
-410.482
-435.146
-463.542
-493.4
-522.789
-550.53
-574.369
-591.018
-598.693
-597.071
-587.426
-572.944
-556
-537.831
-520.376
-506.048
-496.314
-491.826
-491.758
-493.608
-495.695
-497.295
-497.542
-495.686
-491.186
-483.598
-473.242
-461.238
-448.277
-434.625
-420.438
-405.615
-390.167
-374.262
-357.894
-340.922
-323.292
-305.008
-286.155
-266.928
-247.454
-227.793
-207.994
-188.076
-168.076
-148.057
-128.073
-108.18
-88.431
-68.871
-49.544
-30.501
-11.785
6.56
24.495
41.992
59.011
75.507
91.425
106.702
121.279
135.105
148.132
160.313
171.606
181.969
191.364
199.761
207.133
213.457
218.712
222.885
225.965
227.952
228.849
228.669
227.427
225.146
221.85
217.572
212.349
206.223
199.239
191.447
182.904
173.669
163.805
153.383
142.474
131.158
119.516
107.632
95.597
83.502
71.441
59.508
47.801
36.413
25.441
14.978
5.114
-4.061
-12.464
-20.012
-26.631
-32.249
-36.801
-40.227
-42.473
-43.493
-43.246
-41.698
-38.823
-34.599
-29.014
-22.059
-13.736
-4.05
6.983
19.342
32.998
47.914
64.045
81.341
99.742
119.182
139.591
160.889
182.994
205.817
229.264
253.239
277.642
302.37
327.317
352.379
377.447
402.416
427.18
451.632
475.669
499.191
522.099
544.295
565.688
586.186
605.705
624.161
641.478
657.582
672.406
685.886
697.968
708.601
717.742
725.354
731.406
735.876
738.748
740.012
739.667
737.718
734.177
729.063
722.402
714.225
704.57
693.481
681.007
667.202
652.123
635.832
618.396
599.881
580.361
559.91
538.602
516.516
493.731
470.326
446.382
421.976
397.189
372.097
346.777
321.302
295.743
270.169
244.645
219.232
193.99
168.971
144.225
119.798
95.728
72.051
48.797
25.991
3.652
-18.205
-39.571
-60.439
-80.808
-100.682
-120.068
-138.975
-157.417
-175.41
-192.974
-210.128
-226.895
-243.297
-259.357
-275.1
-290.546
-305.718
-320.636
-335.317
-349.777
-364.03
-378.088
-391.957
-405.643
-419.146
-432.466
-445.595
-458.524
-471.238
-483.721
-495.95
-507.9
-519.541
-530.842
-541.767
-552.279
-562.335
-571.894
-580.912
-589.344
-597.142
-604.262
-610.658
-616.285
-621.102
-625.068
-628.148
-630.308
-631.52
-631.759
-631.007
-629.249
-626.478
-622.691
-617.892
-612.09
-605.301
-597.547
-588.856
-579.264
-568.81
-557.542
-545.513
-532.779
-519.406
-505.459
-491.012
-476.14
-460.923
-445.442
-429.784
-414.034
-398.28
-382.609
-367.108
-351.866
-336.965
-322.487
-308.512
-295.113
-282.362
-270.324
-259.059
-248.622
-239.062
-230.424
-222.743
-216.051
-210.37
-205.72
-202.111
-199.548
-198.028
-197.544
-198.082
-199.622
-202.14
-205.606
-209.986
-215.241
-221.329
-228.204
-235.819
-244.123
-253.064
-262.589
-272.646
-283.181
-294.143
-305.481
-317.149
-329.099
-341.288
-353.677
-366.229
-378.909
-391.689
-404.54
-417.442
-430.374
-443.323
-456.275
-469.224
-482.166
-495.099
-508.026
-520.951
-533.883
-546.831
-559.808
-572.828
-585.906
-599.058
-612.301
-625.651
-639.125
-652.737
-666.499
-680.422
-694.513
-708.777
-723.212
-737.817
-752.582
-767.495
-782.54
-797.694
-812.932
-828.223
-843.532
-858.821
-874.046
-889.162
-904.117
-918.857
-933.326
-947.464
-961.209
-974.496
-987.258
-999.425
-1010.93
-1021.699
-1031.662
-1040.747
-1048.88
-1055.994
-1062.02
-1066.896
-1070.561
-1072.959
-1074.041
-1073.761
-1072.085
-1068.98
-1064.423
-1058.397
-1050.894
-1041.913
-1031.462
-1019.556
-1006.217
-991.474
-975.363
-957.929
-939.223
-919.304
-898.239
-876.098
-852.964
-828.924
-804.073
-778.512
-752.348
-725.694
-698.675
-671.421
-644.067
-616.745
-589.591
-562.743
-536.337
-510.507
-485.378
-461.067
-437.688
-415.359
-394.196
-374.315
-355.823
-338.815
-323.385
-309.628
-297.634
-287.49
-279.262
-272.995
-268.741
-266.553
-266.494
-268.629
-272.981
-279.526
-288.214
-298.975
-311.709
-326.293
-342.54
-360.208
-379.063
-398.891
-419.512
-440.777
-462.493
-484.431
-506.331
-527.935
-549.086
-569.704
-589.744
-609.208
-628.154
-646.712
-665.15
-683.802
-702.922
-722.679
-743.122
-764.232
-786.057
-808.675
-832.184
-856.644
-881.905
-907.673
-933.567
-959.061
-983.544
-1006.251
-1026.193
-1042.343
-1053.741
-1059.548
-1059.16
-1052.04
-1037.594
-1015.28
-984.353
-944.133
-894.612
-835.944
-768.503
-693.035
-609.908
-519.626
-423.615
-323.339
-219.604
-113.418
-5.277
104.508
213.874
320.56
423.137
519.982
609.44
690.477
761.467
820.899
869.643
908.861
939.211
961.837
977.673
987.346
992.349
994.306
993.327
989.713
984.36
977.856
971.112
965.03
959.738
955.24
952.165
950.904
951.544
954.208
958.615
964.454
971.704
980.224
989.648
999.544
1009.328
1018.449
1026.61
1033.589
1039.201
1043.339
1045.895
1046.844
1046.299
1044.388
1041.221
1036.882
1031.411
1024.879
1017.407
1009.144
1000.266
990.896
981.094
970.888
960.281
949.253
937.775
925.781
913.156
899.798
885.625
870.569
854.589
837.635
819.648
800.575
780.373
759.02
736.51
712.85
688.05
662.141
635.162
607.174
578.254
548.479
517.93
486.69
454.848
422.502
389.76
356.733
323.535
290.289
257.122
224.17
191.571
159.463
127.985
97.271
67.457
38.674
11.05
-15.293
-40.241
-63.686
-85.529
-105.679
-124.056
-140.594
-155.235
-167.934
-178.656
-187.38
-194.096
-198.805
-201.522
-202.271
-201.09
-198.026
-193.139
-186.497
-178.182
-168.281
-156.893
-144.124
-130.088
-114.907
-98.71
-81.628
-63.797
-45.356
-26.447
-7.209
12.217
31.693
51.083
70.257
89.086
107.451
125.235
142.332
158.642
174.073
188.544
201.98
214.318
225.503
235.491
244.246
251.744
257.968
262.912
266.579
268.981
270.139
270.082
268.848
266.481
263.034
258.566
253.142
246.833
239.714
231.863
223.363
214.3
204.761
194.833
184.605
174.166
163.603
153.003
142.448
132.021
121.799
111.857
102.265
93.091
84.395
76.237
68.668
61.739
55.491
49.964
45.191
41.201
38.018
35.66
34.141
33.471
33.654
34.69
36.573
39.296
42.846
47.206
52.356
58.272
64.929
72.296
80.343
89.035
98.336
108.209
118.615
129.514
140.864
152.622
164.747
177.194
189.918
202.875
216.018
229.301
242.676
256.096
269.512
282.876
296.137
309.247
322.154
334.809
347.16
359.157
370.748
381.882
392.508
402.574
412.029
420.822
428.903
436.219
442.722
448.362
453.088
456.853
459.609
461.309
461.908
461.361
459.626
456.664
452.436
446.907
440.045
431.822
422.213
411.198
398.759
384.885
369.57
352.812
334.615
314.988
293.947
271.513
247.714
222.582
196.16
168.493
139.634
109.645
78.592
46.548
13.593
-20.185
-54.694
-89.835
-125.502
-161.583
-197.963
-234.52
-271.127
-307.654
-343.967
-379.93
-415.404
-450.246
-484.318
-517.475
-549.577
-580.483
-610.054
-638.154
-664.649
-689.411
-712.313
-733.237
-752.066
-768.695
-783.022
-794.955
-804.408
-811.306
-815.583
-817.181
-816.056
-812.17
-805.5
-796.032
-783.764
-768.708
-750.884
-730.327
-707.082
-681.207
-652.77
-621.851
-588.54
-552.936
-515.151
-475.302
-433.518
-389.933
-344.691
-297.941
-249.838
-200.542
-150.218
-99.033
-47.157
5.239
57.982
110.901
163.826
216.587
269.02
320.963
372.26
422.76
472.319
520.799
568.071
614.016
658.522
701.489
742.825
782.45
820.295
856.302
890.422
922.621
952.873
981.164
1007.491
1031.862
1054.294
1074.816
1093.465
1110.288
1125.338
1138.679
1150.379
1160.512
1169.161
1176.409
1182.345
1187.06
1190.647
1193.202
1194.817
1195.587
1195.603
1194.955
1193.728
1192.005
1189.862
1187.371
1184.597
1181.601
1178.433
1175.139
1171.756
1168.315
1164.836
1161.334
1157.814
1154.275
1150.706
1147.09
1143.402
1139.611
1135.68
1131.566
1127.22
1122.591
1117.624
1112.258
1106.435
1100.093
1093.169
1085.602
1077.331
1068.298
1058.447
1047.726
1036.087
1023.488
1009.89
995.263
979.583
962.831
944.997
926.08
906.083
885.021
862.915
839.795
815.7
790.676
764.778
738.069
710.617
682.501
653.802
624.612
595.022
565.133
535.045
504.865
474.7
444.659
414.85
385.382
356.365
327.903
300.1
273.056
246.867
221.623
197.41
174.306
152.386
131.713
112.347
94.337
77.726
62.547
48.824
36.573
25.8
16.502
8.667
2.272
-2.711
-6.324
-8.612
-9.632
-9.447
-8.125
-5.743
-2.382
1.872
6.926
12.688
19.059
25.939
33.228
40.822
48.621
56.523
64.427
72.236
79.855
87.191
94.155
100.665
106.64
112.006
116.697
120.648
123.807
126.125
127.561
128.084
127.667
126.294
123.955
120.648
116.378
111.159
105.009
97.954
90.027
81.266
71.715
61.421
50.437
38.821
26.631
13.932
0.786
-12.74
-26.578
-40.66
-54.92
-69.289
-83.703
-98.096
-112.406
-126.573
-140.541
-154.257
-167.672
-180.74
-193.422
-205.681
-217.489
-228.819
-239.65
-249.967
-259.759
-269.02
-277.748
-285.945
-293.618
-300.778
-307.437
-313.613
-319.326
-324.596
-329.449
-333.908
-338.001
-341.755
-345.197
-348.356
-351.259
-353.933
-356.405
-358.7
-360.841
-362.852
-364.751
-366.558
-368.288
-369.955
-371.569
-373.141
-374.676
-376.18
-377.655
-379.102
-380.522
-381.913
-383.272
-384.597
-385.885
-387.132
-388.335
-389.49
-390.597
-391.653
-392.658
-393.615
-394.526
-395.395
-396.229
-397.036
-397.827
-398.614
-399.411
-400.235
-401.103
-402.036
-403.056
-404.187
-405.453
-406.881
-408.497
-410.328
-412.4
-414.741
-417.375
-420.327
-423.617
-427.266
-431.29
-435.703
-440.515
-445.733
-451.358
-457.39
-463.821
-470.64
-477.833
-485.377
-493.247
-501.414
-509.842
-518.49
-527.316
-536.271
-545.3
-554.349
-563.357
-572.261
-580.994
-589.487
-597.672
-605.475
-612.825
-619.651
-625.88
-631.443
-636.272
-640.303
-643.475
-645.73
-647.015
-647.284
-646.494
-644.609
-641.601
-637.446
-632.128
-625.639
-617.977
-609.148
-599.164
-588.047
-575.823
-562.527
-548.2
-532.891
-516.653
-499.546
-481.637
-462.997
-443.701
-423.831
-403.469
-382.703
-361.622
-340.316
-318.877
-297.396
-275.963
-254.668
-233.597
-212.834
-192.459
-172.549
-153.175
-134.403
-116.293
-98.901
-82.275
-66.456
-51.48
-37.373
-24.158
-11.848
-0.449
10.038
19.621
28.314
36.136
43.113
49.279
54.669
59.328
63.302
66.643
69.405
71.645
73.423
74.799
75.835
76.593
77.132
77.512
77.789
78.019
78.251
78.535
78.912
79.422
80.099
80.97
82.058
83.38
84.947
86.763
88.827
91.13
93.658
96.391
99.304
102.365
105.537
108.779
112.044
115.281
118.437
121.454
124.274
126.834
129.073
130.929
132.338
133.242
133.579
133.295
132.335
130.65
128.193
124.924
120.806
115.81
109.91
103.088
95.334
86.641
77.013
66.46
54.999
42.655
29.459
15.451
0.678
-14.806
-30.942
-47.662
-64.893
-82.557
-100.569
-118.843
-137.285
-155.8
-174.292
-192.66
-210.807
-228.633
-246.04
-262.929
-279.207
-294.781
-309.562
-323.466
-336.41
-348.318
-359.12
-368.749
-377.15
-384.271
-390.069
-394.506
-397.552
-399.186
-399.393
-398.167
-395.51
-391.43
-385.943
-379.076
-370.864
-361.356
-350.604
-338.661
-325.588
-311.445
-296.301
-280.233
-263.319
-245.639
-227.278
-208.323
-188.87
-169.023
-148.885
-128.554
-108.117
-87.651
-67.24
-46.982
-26.98
-7.346
11.822
30.436
48.41
65.657
82.094
97.652
112.284
125.975
138.71
150.474
161.22
170.876
179.413
186.838
193.224
198.719
203.397
207.271
210.325
212.497
213.797
214.346
214.13
212.975
210.871
207.942
204.682
202.056
200.52
199.837
199.591
199.209
197.962
195.21
189.588
178.719
161.218
137.234
107.81
75.013
41.186
8.043
-22.173
-46.052
-61.215
-67.13
-64.52
-55.818
-44.251
-31.992
-21.017
-14.069
-13.202
-19.167
-32.012
-50.263
-71.091
-92.631
-113.721
-132.933
-149.316
-162.385
-171.504
-176.795
-179.677
-181.066
-181.321
-180.849
-179.618
-177.583
-175.18
-172.669
-169.656
-165.887
-161.274
-155.704
-149.408
-142.583
-135.167
-127.12
-118.522
-109.447
-100.014
-90.365
-80.522
-70.51
-60.39
-50.216
-40.081
-30.083
-20.297
-10.797
-1.662
7.019
15.146
22.607
29.298
35.126
40.002
43.846
46.572
48.1
48.354
47.264
44.773
40.834
35.396
28.418
19.867
9.719
-2.036
-15.397
-30.358
-46.902
-65.003
-84.626
-105.726
-128.251
-152.143
-177.334
-203.747
-231.296
-259.884
-289.407
-319.753
-350.803
-382.432
-414.51
-446.903
-479.477
-512.097
-544.629
-576.928
-608.851
-640.255
-670.994
-700.921
-729.889
-757.746
-784.343
-809.545
-833.224
-855.258
-875.533
-893.94
-910.389
-924.805
-937.121
-947.271
-955.19
-960.816
-964.096
-964.994
-963.473
-959.503
-953.061
-944.127
-932.72
-918.888
-902.676
-884.135
-863.296
-840.162
-814.769
-787.194
-757.515
-725.818
-692.207
-656.827
-619.905
-581.761
-542.714
-503.048
-462.969
-422.635
-382.217
-341.877
-301.798
-262.159
-223.082
-184.727
-147.288
-110.978
-75.959
-42.214
-9.536
22.393
53.975
85.597
117.304
148.957
180.212
210.28
238.57
264.669
287.812
307.515
324.204
338.84
353.219
369.755
389.678
413.42
441.624
473.859
508.328
542.171
570.388
587.171
588.457
570.689
530.483
466.756
380.022
274.092
157.651
39.127
-75.672
-185.544
-293.042
-398.837
-498.214
-576.699
-617.491
-609.244
-551.027
-461.492
-368.745
-300.592
-276.15
-294.263
-339.164
-387.502
-419.632
-428.397
-417.171
-397.278
-377.881
-362.163
-349.973
-338.121
-325.368
-313.124
-302.336
-293.749
-287.353
-282.143
-277.508
-273.138
-268.505
-263.339
-257.609
-251.317
-244.59
-237.522
-230.071
-222.252
-214.168
-205.908
-197.602
-189.365
-181.31
-173.699
-166.772
-160.737
-155.799
-152.015
-149.382
-147.934
-147.638
-148.414
-150.237
-153.064
-156.892
-161.853
-167.998
-175.31
-183.718
-193.014
-203.064
-213.838
-225.297
-237.441
-250.284
-263.787
-278.029
-293.221
-309.388
-326.424
-344.052
-361.744
-379.116
-395.925
-411.96
-427.126
-441.243
-454.02
-465.227
-474.681
-482.148
-487.422
-490.149
-489.789
-486.086
-479.006
-468.743
-455.795
-440.51
-423.078
-403.714
-382.58
-359.876
-335.885
-310.788
-284.676
-257.745
-230.23
-202.51
-175.142
-148.467
-122.63
-97.635
-73.278
-49.451
-26.179
-3.439
18.788
40.495
61.689
82.28
102.074
120.972
138.932
155.988
172.283
187.857
202.661
216.606
229.531
241.317
251.904
261.208
269.134
275.633
280.681
284.315
286.641
287.733
287.64
286.403
284.042
280.604
276.168
270.812
264.625
257.701
250.131
242.019
233.484
224.63
215.55
206.326
197.022
187.708
178.461
169.353
160.45
151.82
143.526
135.631
128.202
121.297
114.965
109.249
104.187
99.81
96.146
93.216
91.036
89.615
88.958
89.067
89.937
91.557
93.914
96.988
100.755
105.186
110.247
115.902
122.111
128.832
136.019
143.627
151.608
159.911
168.487
177.286
186.257
195.35
204.511
213.689
222.834
231.9
240.841
249.613
258.166
266.456
274.443
282.089
289.361
296.228
302.656
308.623
314.111
319.109
323.613
327.617
331.109
334.085
336.541
338.487
339.955
340.973
341.568
341.773
341.619
341.148
340.41
339.445
338.283
336.949
335.465
333.868
332.216
330.571
329.014
327.576
326.251
325.027
323.873
322.819
321.973
321.394
321.105
321.137
321.442
322.11
323.448
325.394
327.574
329.663
331.185
332.179
333.431
335.235
337.326
340.124
344.405
351.07
361.602
375.987
392.392
409.82
427.987
445.996
462.978
477.61
487.556
492.591
494.813
495.468
495.276
495.085
495.161
496.402
500.734
508.341
517.665
527.666
537.47
546.471
554.816
562.144
567.471
570.624
572.129
572.368
571.782
570.537
568.349
565.17
561.163
556.349
550.694
544.151
536.614
528.083
518.679
508.484
497.567
485.972
473.702
460.778
447.239
433.123
418.476
403.342
387.758
371.765
355.404
338.719
321.758
304.565
287.182
269.65
252.006
234.3
216.588
198.925
181.364
163.953
146.736
129.756
113.06
96.689
80.686
65.09
49.941
35.278
21.141
7.572
-5.388
-17.699
-29.322
-40.216
-50.34
-59.652
-68.111
-75.673
-82.3
-87.949
-92.583
-96.164
-98.659
-100.034
-100.261
-99.315
-97.172
-93.813
-89.223
-83.386
-76.295
-67.943
-58.325
-47.444
-35.304
-21.911
-7.278
8.579
25.639
43.876
63.262
83.76
105.328
127.92
151.482
175.955
201.274
227.365
254.153
281.554
309.481
337.842
366.542
395.483
424.566
453.688
482.75
511.648
540.282
568.553
596.361
623.61
650.207
676.061
701.086
725.197
748.316
770.369
791.286
811.003
829.463
846.613
862.409
876.813
889.795
901.334
911.417
920.043
927.216
932.954
937.28
940.231
941.849
942.186
941.302
939.264
936.143
932.02
926.976
921.101
914.483
907.217
899.397
891.119
882.479
873.571
864.49
855.329
846.178
837.123
828.25
819.638
811.366
803.503
796.117
789.267
783.008
777.386
772.439
768.198
764.683
761.908
759.876
758.58
758.006
758.13
758.92
760.336
762.332
764.851
767.833
771.213
774.919
778.877
783.007
787.231
791.466
795.628
799.636
803.405
806.853
809.899
812.462
814.465
815.832
816.49
816.37
815.406
813.536
810.705
806.861
801.961
795.965
788.841
780.563
771.115
760.484
748.665
735.663
721.487
706.152
689.682
672.105
653.455
633.772
613.099
591.482
568.974
545.627
521.497
496.643
471.124
445.002
418.34
391.203
363.655
335.763
307.594
279.216
250.695
222.1
193.497
164.952
136.532
108.301
80.323
52.66
25.371
-1.484
-27.85
-53.672
-78.9
-103.483
-127.375
-150.533
-172.914
-194.479
-215.191
-235.015
-253.917
-271.867
-288.836
-304.798
-319.728
-333.605
-346.411
-358.131
-368.753
-378.268
-386.673
-393.968
-400.156
-405.246
-409.252
-412.191
-414.089
-414.971
-414.873
-413.833
-411.895
-409.106
-405.52
-401.195
-396.192
-390.578
-384.421
-377.795
-370.776
-363.443
-355.88
-348.171
-340.402
-332.662
-325.042
-317.63
-310.517
-303.792
-297.543
-291.857
-286.817
-282.503
-278.992
-276.355
-274.659
-273.964
-274.325
-275.788
-278.391
-282.167
-287.137
-293.314
-300.704
-309.301
-319.093
-330.055
-342.157
-355.358
-369.608
-384.851
-401.019
-418.039
-435.83
-454.303
-473.364
-492.912
-512.841
-533.041
-553.397
-573.792
-594.106
-614.217
-634.004
-653.342
-672.111
-690.191
-707.463
-723.813
-739.131
-753.312
-766.258
-777.875
-788.079
-796.792
-803.945
-809.478
-813.34
-815.488
-815.89
-814.523
-811.374
-806.441
-799.73
-791.259
-781.054
-769.151
-755.594
-740.439
-723.746
-705.588
-686.042
-665.194
-643.137
-619.97
-595.8
-570.737
-544.898
-518.404
-491.38
-463.953
-436.254
-408.416
-380.57
-352.852
-325.393
-298.326
-271.783
-245.891
-220.777
-196.564
-173.372
-151.315
-130.503
-111.043
-93.032
-76.566
-61.732
-48.61
-37.277
-27.798
-20.237
-14.644
-11.067
-9.544
-10.103
-12.766
-17.546
-24.447
-33.464
-44.582
-57.779
-73.025
-90.278
-109.491
-130.606
-153.56
-178.28
-204.685
-232.688
-262.194
-293.104
-325.309
-358.698
-393.153
-428.553
-464.771
-501.679
-539.143
-577.029
-615.2
-653.518
-691.841
-730.032
-767.949
-805.454
-842.41
-878.683
-914.141
-948.655
-982.102
-1014.363
-1045.325
-1074.878
-1102.922
-1129.361
-1154.106
-1177.076
-1198.198
-1217.405
-1234.639
-1249.851
-1262.998
-1274.047
-1282.972
-1289.753
-1294.381
-1296.852
-1297.169
-1295.345
-1291.397
-1285.351
-1277.238
-1267.094
-1254.965
-1240.897
-1224.945
-1207.166
-1187.621
-1166.373
-1143.492
-1119.049
-1093.117
-1065.774
-1037.097
-1007.165
-976.058
-943.856
-910.641
-876.492
-841.489
-805.712
-769.242
-732.162
-694.557
-656.513
-618.108
-579.421
-540.527
-501.499
-462.412
-423.34
-384.356
-345.533
-306.95
-268.688
-230.835
-193.48
-156.704
-120.582
-85.178
-50.559
-16.808
15.988
47.733
78.325
107.673
135.687
162.272
187.347
210.841
232.703
252.907
271.435
288.257
303.329
316.575
327.947
337.44
345.099
351.045
355.389
358.167
359.41
359.113
357.25
353.921
349.128
342.682
334.644
325.264
314.983
304.741
295.259
286.45
278.155
270.117
261.301
250.713
237.026
217.76
191.262
157.637
117.534
72.627
25.944
-20.164
-63.131
-98.994
-125.165
-141.078
-147.001
-145.056
-138.794
-130.561
-122.603
-118.081
-118.802
-125.309
-137.561
-153.786
-171.312
-188.577
-204.307
-217.036
-226.146
-231.319
-232.384
-230.073
-225.419
-218.92
-210.887
-201.511
-190.676
-178.401
-164.784
-149.727
-133.136
-115.02
-95.43
-74.512
-52.468
-29.421
-5.451
19.376
45.014
71.393
98.425
126.027
154.113
182.602
211.415
240.468
269.676
298.958
328.234
357.43
386.468
415.259
443.707
471.704
499.139
525.907
551.906
577.033
601.191
624.281
646.205
666.869
686.184
704.063
720.421
735.179
748.262
759.604
769.142
776.823
782.599
786.425
788.267
788.097
785.894
781.648
775.359
767.037
756.703
744.389
730.134
713.99
696.018
676.283
654.864
631.847
607.326
581.403
554.191
525.807
496.376
466.033
434.914
403.157
370.902
338.29
305.463
272.56
239.712
207.051
174.708
142.817
111.507
80.906
51.139
22.329
-5.403
-31.944
-57.197
-81.081
-103.532
-124.504
-143.959
-161.874
-178.243
-193.06
-206.324
-218.046
-228.22
-236.842
-243.929
-249.507
-253.63
-256.391
-257.849
-258.051
-257.054
-254.89
-251.567
-247.084
-241.367
-234.324
-225.941
-216.231
-205.266
-193.206
-180.172
-166.297
-151.742
-136.578
-120.903
-104.86
-88.5
-71.902
-55.226
-38.648
-22.511
-7.266
6.817
19.551
30.803
40.633
49.069
56.159
62.15
67.216
71.505
75.244
78.498
81.296
83.848
86.398
89.389
93.491
99.174
106.788
116.73
129.209
144.422
162.563
183.444
206.78
232.347
259.806
288.948
319.651
351.573
384.243
417.052
449.18
479.905
508.605
534.496
556.737
574.484
586.925
593.688
594.59
589.359
577.834
559.829
535.177
504.041
466.656
423.101
373.836
319.732
261.192
198.58
132.789
64.097
-5.481
-71.925
-135.608
-199.048
-266.833
-347.857
-440.659
-535.377
-622.137
-687.054
-729.066
-760.029
-788.939
-825.836
-872.018
-918.029
-958.161
-988.397
-1007.591
-1019.519
-1025.91
-1026.802
-1022.43
-1012.364
-996.718
-976.345
-952.033
-924.521
-894.588
-862.98
-830.172
-796.477
-762.213
-727.621
-692.953
-658.5
-624.428
-590.818
-557.835
-525.65
-494.335
-463.921
-434.231
-404.918
-375.724
-346.441
-316.939
-287.203
-257.209
-226.947
-196.492
-165.971
-135.52
-105.301
-75.409
-45.891
-16.842
11.623
39.345
66.105
91.745
116.163
139.274
161.038
181.441
200.476
218.196
234.7
250.077
264.419
277.803
290.282
301.927
312.823
323.051
332.7
341.849
350.556
358.884
366.892
374.628
382.134
389.436
396.547
403.48
410.251
416.872
423.351
429.695
435.9
441.961
447.872
453.619
459.184
464.543
469.668
474.53
479.097
483.338
487.218
490.706
493.771
496.381
498.507
500.119
501.191
501.701
501.628
500.956
499.675
497.779
495.267
492.147
488.428
484.128
479.268
473.875
467.978
461.612
454.819
447.641
440.126
432.324
424.29
416.082
407.762
399.387
391.016
382.705
374.507
366.474
358.648
351.066
343.756
336.75
330.075
323.758
317.825
312.3
307.204
302.563
298.4
294.721
291.525
288.794
286.501
284.609
283.077
281.853
280.887
280.13
279.533
279.055
278.665
278.31
277.928
277.44
276.739
275.754
274.436
272.742
270.667
268.243
265.537
262.68
259.818
257.027
254.348
251.774
249.229
246.658
243.991
241.136
238.087
234.823
231.294
227.51
223.451
219.01
214.021
208.185
201.128
192.648
182.686
171.21
158.273
143.921
128.318
111.873
95.018
78.188
61.731
45.964
31.503
19.09
9.265
2.262
-2.048
-2.953
1.3
11.856
27.9
42.754
46.776
34.427
6.924
-20.322
-26.638
0.457
64.243
146.848
221.751
270.694
280.298
258.225
224.174
191.245
172.46
167.633
165.135
159.824
148.069
130.08
112.297
96.576
81.234
65.636
48.469
29.265
9.149
-11.692
-34.028
-57.79
-82.324
-107.253
-132.169
-157.025
-182.352
-208.416
-235.115
-262.445
-290.477
-319.287
-349.141
-380.306
-412.836
-446.74
-481.947
-518.262
-555.541
-593.633
-632.252
-671.047
-709.564
-747.24
-783.655
-818.517
-851.438
-881.976
-909.554
-933.423
-953.013
-967.947
-977.892
-982.622
-981.956
-975.741
-964.036
-947.09
-925.194
-898.699
-867.878
-832.896
-794.1
-752.036
-707.383
-660.992
-613.633
-565.919
-518.532
-472.258
-427.833
-385.839
-346.547
-309.923
-275.97
-244.879
-217.054
-192.93
-172.57
-156.038
-143.782
-136.011
-132.666
-133.546
-137.433
-144.379
-156.412
-173.435
-192.631
-206.539
-204.536
-182.019
-144.906
-108.716
-90.023
-98.562
-131.524
-174.672
-217.918
-253.293
-274.968
-284.606
-276.844
-250.738
-216.061
-179.646
-152.09
-137.71
-129.029
-121.628
-112.939
-103.31
-97.492
-96.741
-99.092
-102.997
-106.957
-110.349
-113.332
-115.264
-115.389
-113.794
-111.187
-108.233
-105.271
-102.317
-99.152
-95.779
-92.369
-88.938
-85.401
-81.669
-77.702
-73.564
-69.395
-65.285
-61.257
-57.302
-53.38
-49.448
-45.477
-41.423
-37.252
-32.931
-28.426
-23.7
-18.718
-13.44
-7.832
-1.862
4.505
11.302
18.562
26.318
34.567
43.276
52.424
61.986
71.959
82.377
93.222
104.413
115.958
127.931
140.374
153.334
166.763
180.461
194.331
208.455
222.59
236.127
248.892
260.925
272.061
282.806
291.895
295.994
295.948
294.554
296.844
312.034
338.83
367.946
389.911
391.344
372.185
344.767
318.58
304.166
302.677
304.793
304.992
299.219
286.564
270.891
253.869
235.582
216.256
195.372
172.891
149.344
124.945
99.793
73.962
47.387
20.169
-7.487
-35.071
-61.675
-86.857
-110.724
-133.494
-155.577
-177.52
-199.734
-223.439
-250.772
-282.623
-318.628
-357.657
-397.563
-436.48
-473.23
-505.629
-530.528
-546.296
-552.699
-550.892
-543.749
-533.416
-520.987
-508.257
-497.489
-489.972
-486.22
-485.447
-485.365
-484.466
-482.139
-477.607
-470.192
-459.461
-445.096
-427.467
-407.677
-386.417
-363.988
-340.607
-316.269
-291.063
-265.214
-238.79
-211.732
-184.061
-155.855
-127.257
-98.503
-69.762
-41.135
-12.712
15.454
43.295
70.729
97.688
124.107
149.934
175.128
199.655
223.482
246.59
268.962
290.597
311.504
331.691
351.163
369.924
387.972
405.318
421.977
437.973
453.33
468.075
482.235
495.839
508.918
521.501
533.619
545.298
556.564
567.442
577.957
588.131
597.989
607.547
616.821
625.824
634.562
643.041
651.26
659.218
666.906
674.315
681.432
688.239
694.718
700.845
706.596
711.94
716.849
721.288
725.224
728.622
731.444
733.657
735.224
736.112
736.287
735.718
734.375
732.231
729.261
725.443
720.756
715.185
708.717
701.342
693.058
683.863
673.764
662.768
650.891
638.152
624.575
610.188
595.024
579.122
562.525
545.281
527.442
509.064
490.209
470.942
451.33
431.443
411.354
391.136
370.865
350.617
330.466
310.488
290.759
271.352
252.34
233.795
215.786
198.379
181.639
165.626
150.398
136.007
122.502
109.927
98.323
87.724
78.161
69.658
62.234
55.903
50.673
46.544
43.512
41.566
40.69
40.86
42.048
44.222
47.344
51.37
56.256
61.95
68.401
75.551
83.342
91.711
100.597
109.933
119.653
129.691
139.978
150.447
161.029
171.66
182.271
192.797
203.176
213.343
223.239
232.805
241.985
250.726
258.979
266.696
273.835
280.358
286.23
291.419
295.9
299.648
302.645
304.876
306.327
306.991
306.864
305.943
304.23
301.732
298.455
294.412
289.615
284.082
277.83
270.881
263.257
254.985
246.091
236.606
226.56
215.988
204.925
193.408
181.475
169.167
156.525
143.589
130.404
117.012
103.456
89.782
76.033
62.255
48.492
34.789
21.192
7.745
-5.508
-18.523
-31.256
-43.666
-55.712
-67.351
-78.546
-89.256
-99.446
-109.08
-118.124
-126.545
-134.315
-141.406
-147.794
-153.458
-158.379
-162.541
-165.934
-168.548
-170.378
-171.422
-171.682
-171.163
-169.873
-167.824
-165.032
-161.516
-157.298
-152.405
-146.864
-140.708
-133.97
-126.689
-118.904
-110.657
-101.992
-92.956
-83.596
-73.962
-64.106
-54.079
-43.935
-33.727
-23.508
-13.332
-3.25
6.686
16.424
25.917
35.115
43.973
52.447
60.492
68.068
75.136
81.659
87.603
92.935
97.626
101.648
104.975
107.585
109.458
110.575
110.92
110.482
109.248
107.211
104.365
100.709
96.242
90.967
84.889
78.016
70.359
61.93
52.742
42.813
32.162
20.809
8.777
-3.907
-17.217
-31.122
-45.588
-60.581
-76.062
-91.991
-108.322
-125.011
-142.007
-159.258
-176.71
-194.304
-211.98
-229.676
-247.325
-264.861
-282.215
-299.317
-316.096
-332.481
-348.398
-363.778
-378.547
-392.633
-405.967
-418.477
-430.094
-440.751
-450.383
-458.925
-466.317
-472.5
-477.421
-481.029
-483.278
-484.126
-483.538
-481.482
-477.934
-472.873
-466.287
-458.17
-448.523
-437.353
-424.675
-410.511
-394.887
-377.84
-359.408
-339.64
-318.586
-296.304
-272.856
-248.309
-222.734
-196.207
-168.808
-140.62
-111.729
-82.226
-52.201
-21.751
9.03
40.043
71.19
102.372
133.49
164.445
195.139
225.475
255.358
284.694
313.393
341.368
368.535
394.813
420.126
444.402
467.571
489.57
510.338
529.819
547.96
564.713
580.034
593.884
606.227
617.032
626.272
633.928
639.98
644.418
647.233
648.424
647.992
645.945
642.296
637.061
630.263
621.93
612.094
600.794
588.07
573.97
558.543
541.844
523.93
504.864
484.708
463.532
441.405
418.403
394.601
370.08
344.921
319.208
293.029
266.469
239.617
212.564
185.398
158.209
131.086
104.119
77.395
51
25.018
-0.471
-25.389
-49.66
-73.216
-95.99
-117.921
-138.953
-159.034
-178.118
-196.162
-213.13
-228.988
-243.71
-257.274
-269.662
-280.863
-290.869
-299.68
-307.298
-313.732
-318.992
-323.096
-326.062
-327.916
-328.684
-328.397
-327.087
-324.791
-321.549
-317.406
-312.404
-306.583
-299.981
-292.637
-284.595
-275.904
-266.609
-256.739
-246.338
-235.475
-224.231
-212.693
-200.915
-188.908
-176.698
-164.351
-151.892
-139.27
-126.379
-113.114
-99.486
-85.642
-71.705
-57.673
-43.735
-30.428
-18.237
-7.361
2.294
11.224
18.436
21.184
18.417
11.943
8.414
17.658
44.153
82.691
120.044
140.575
134.246
105.729
67.784
31.668
9.372
-0.323
-4.174
-1.565
-0.582
-1.242
0.768
-2.537
-7.637
-16.75
-39.344
-71.369
-117.499
-174.762
-227.667
-271.596
-297.798
-306.575
-312.98
-324.983
-350.735
-391.822
-438.737
-486.015
-530.025
-569.37
-607.382
-645.507
-683.511
-721.338
-758.257
-794.016
-828.963
-863.11
-896.272
-928.298
-959.044
-988.356
-1016.081
-1042.048
-1066.062
-1087.99
-1107.776
-1125.352
-1140.65
-1153.613
-1164.197
-1172.373
-1178.135
-1181.481
-1182.414
-1180.953
-1177.132
-1170.997
-1162.609
-1152.037
-1139.364
-1124.68
-1108.088
-1089.696
-1069.624
-1047.995
-1024.94
-1000.596
-975.101
-948.6
-921.239
-893.163
-864.521
-835.459
-806.12
-776.645
-747.171
-717.827
-688.739
-660.023
-631.79
-604.141
-577.17
-550.96
-525.588
-501.12
-477.611
-455.11
-433.651
-413.264
-393.965
-375.763
-358.657
-342.637
-327.688
-313.785
-300.895
-288.983
-278.003
-267.907
-258.642
-250.149
-242.368
-235.232
-228.677
-222.634
-217.036
-211.813
-206.9
-202.232
-197.746
-193.383
-189.087
-184.807
-180.495
-176.108
-171.608
-166.963
-162.144
-157.129
-151.903
-146.453
-140.775
-134.867
-128.733
-122.382
-115.826
-109.082
-102.17
-95.111
-87.933
-80.662
-73.329
-65.966
-58.606
-51.284
-44.034
-36.89
-29.888
-23.06
-16.439
-10.055
-3.936
1.893
7.407
12.587
17.417
21.882
25.974
29.686
33.017
35.967
38.543
40.754
42.612
44.134
45.338
46.246
46.883
47.274
47.447
47.431
47.259
46.959
46.566
46.111
45.627
45.145
44.696
44.313
44.023
43.855
43.835
43.988
44.336
44.899
45.695
46.74
48.045
49.621
51.473
53.607
56.021
58.715
61.682
64.915
68.403
72.131
76.085
80.247
84.597
89.112
93.772
98.55
103.423
108.364
113.349
118.35
123.341
128.297
133.192
138.003
142.704
147.274
151.691
155.935
159.986
163.826
167.44
170.813
173.931
176.785
179.364
181.662
183.673
185.394
186.824
187.964
188.816
189.384
189.677
189.701
189.468
188.988
188.276
187.345
186.213
184.896
183.412
181.78
180.019
178.15
176.192
174.166
172.092
169.99
167.882
165.786
163.723
161.713
159.775
157.926
156.186
154.571
153.098
151.781
150.634
149.67
148.899
148.332
147.975
147.835
147.914
148.215
148.737
149.476
150.428
151.584
152.935
154.467
156.167
158.017
160
162.094
164.279
166.53
168.824
171.135
173.437
175.703
177.906
180.019
182.013
183.861
185.538
187.017
188.275
189.287
190.034
190.497
190.658
190.506
190.029
189.222
188.082
186.609
184.812
182.699
180.288
177.599
174.658
171.497
168.15
164.66
161.071
157.434
153.801
150.23
146.78
143.516
140.501
137.802
135.486
133.623
132.279
131.522
131.418
132.031
133.423
135.651
138.77
142.83
147.874
153.94
161.062
169.261
178.557
188.955
200.457
213.05
226.716
241.425
257.136
273.798
291.352
309.725
328.838
348.601
368.915
389.674
410.764
432.064
453.446
474.781
495.933
516.762
537.129
556.892
575.91
594.042
611.15
627.098
641.755
654.996
666.701
676.758
685.064
691.522
696.05
698.573
699.03
697.371
693.561
687.577
679.41
669.066
656.567
641.947
625.254
606.553
585.92
563.443
539.225
513.376
486.02
457.287
427.318
396.257
364.258
331.478
298.075
264.214
230.056
195.767
161.509
127.44
93.718
60.495
27.917
-3.877
-34.754
-64.59
-93.271
-120.693
-146.76
-171.391
-194.515
-216.072
-236.018
-254.317
-270.95
-285.907
-299.191
-310.816
-320.808
-329.202
-336.041
-341.377
-345.27
-347.784
-348.992
-348.967
-347.789
-345.539
-342.299
-338.152
-333.182
-327.469
-321.095
-314.136
-306.667
-298.759
-290.477
-281.884
-273.037
-263.987
-254.779
-245.455
-236.046
-226.58
-217.079
-207.556
-198.019
-188.472
-178.912
-169.33
-159.716
-150.053
-140.324
-130.51
-120.589
-110.542
-100.346
-89.982
-79.433
-68.684
-57.721
-46.536
-35.124
-23.484
-11.621
0.456
12.734
25.194
37.813
50.563
63.41
76.319
89.25
102.158
114.995
127.712
140.254
152.567
164.592
176.272
187.547
198.358
208.647
218.357
227.433
235.825
243.485
250.369
256.44
261.665
266.017
269.475
272.025
273.663
274.387
274.206
273.136
271.2
268.426
264.853
260.522
255.483
249.789
243.499
236.675
229.386
221.699
213.686
205.422
196.982
188.44
179.873
171.354
162.958
154.754
146.812
139.195
131.964
125.174
118.876
113.115
107.929
103.351
99.406
96.115
93.487
91.528
90.236
89.6
89.603
90.222
91.425
93.176
95.432
98.144
101.26
104.721
108.467
112.433
116.55
120.75
124.959
129.105
133.114
136.912
140.426
143.584
146.314
148.549
150.222
151.271
151.635
151.259
150.091
148.084
145.195
141.385
136.622
130.878
124.129
116.36
107.557
97.715
86.835
74.921
61.986
48.045
33.122
17.244
0.445
-17.236
-35.757
-55.067
-75.116
-95.844
-117.19
-139.088
-161.469
-184.258
-207.38
-230.756
-254.303
-277.94
-301.581
-325.141
-348.533
-371.668
-394.459
-416.818
-438.656
-459.885
-480.418
-500.168
-519.051
-536.982
-553.882
-569.674
-584.284
-597.641
-609.68
-620.339
-629.563
-637.302
-643.511
-648.152
-651.194
-652.613
-652.393
-650.529
-647.02
-641.877
-635.118
-626.771
-616.872
-605.465
-592.598
-578.328
-562.719
-545.841
-527.77
-508.592
-488.395
-467.273
-445.328
-422.669
-399.408
-375.662
-351.551
-327.193
-302.713
-278.235
-253.883
-229.781
-206.052
-182.813
-160.182
-138.274
-117.197
-97.051
-77.928
-59.911
-43.071
-27.471
-13.159
-0.167
11.48
21.765
30.68
38.223
44.402
49.233
52.736
54.933
55.86
55.561
54.1
51.561
48.032
43.61
38.403
32.53
26.116
19.302
12.213
4.958
-2.341
-9.56
-16.553
-23.146
-29.2
-34.618
-39.312
-43.218
-46.292
-48.492
-49.85
-50.47
-50.444
-49.868
-48.771
-47.087
-44.783
-41.845
-38.256
-34.037
-29.121
-23.334
-16.563
-8.732
0.255
10.465
22.107
35.545
51.046
68.795
88.827
110.964
135.039
160.889
188.233
216.738
245.907
275.045
303.605
331.172
357.296
381.578
403.442
422.105
436.963
447.576
453.657
455.167
452.077
444.361
432.227
416.045
396.367
373.97
349.451
323.226
295.756
267.468
238.917
210.845
183.821
158.248
134.475
112.717
93.191
76.139
61.592
49.411
39.356
31.054
24.269
18.929
14.935
12.213
10.649
10.047
10.318
11.48
13.525
16.458
20.268
24.901
30.409
36.928
44.609
53.632
64.102
76.036
89.445
104.32
120.629
138.332
157.337
177.499
198.692
220.807
243.733
267.371
291.593
316.238
341.149
366.172
391.157
415.972
440.483
464.556
488.074
510.93
533.03
554.291
574.624
593.936
612.139
629.144
644.871
659.244
672.192
683.646
693.551
701.857
708.529
713.537
716.861
718.485
718.405
716.622
713.144
707.989
701.178
692.74
682.71
671.13
658.048
643.515
627.587
610.325
591.793
572.058
551.19
529.261
506.345
482.52
457.866
432.465
406.404
379.767
352.643
325.122
297.295
269.253
241.084
212.878
184.72
156.695
128.884
101.368
74.221
47.516
21.323
-4.294
-29.272
-53.555
-77.089
-99.827
-121.723
-142.739
-162.839
-181.993
-200.174
-217.361
-233.536
-248.689
-262.812
-275.901
-287.961
-298.999
-309.029
-318.07
-326.145
-333.284
-339.521
-344.895
-349.448
-353.228
-356.285
-358.675
-360.453
-361.681
-362.42
-362.734
-362.688
-362.348
-361.781
-361.054
-360.235
-359.39
-358.587
-357.89
-357.364
-357.074
-357.079
-357.441
-358.215
-359.456
-361.213
-363.535
-366.464
-370.037
-374.288
-379.245
-384.93
-391.358
-398.542
-406.483
-415.18
-424.623
-434.797
-445.681
-457.246
-469.459
-482.28
-495.664
-509.561
-523.915
-538.666
-553.749
-569.095
-584.631
-600.28
-615.96
-631.587
-647.076
-662.337
-677.28
-691.811
-705.84
-719.272
-732.015
-743.979
-755.073
-765.211
-774.31
-782.289
-789.073
-794.591
-798.779
-801.578
-802.936
-802.807
-801.154
-797.946
-793.158
-786.776
-778.79
-769.2
-758.013
-745.243
-730.913
-715.053
-697.701
-678.902
-658.709
-637.181
-614.385
-590.394
-565.286
-539.147
-512.065
-484.135
-455.453
-426.122
-396.245
-365.926
-335.273
-304.391
-273.386
-242.364
-211.426
-180.671
-150.196
-120.093
-90.449
-61.348
-32.866
-5.076
21.957
48.172
73.518
97.948
121.422
143.91
165.385
185.832
205.239
223.604
240.931
257.231
272.523
286.829
300.18
312.613
324.169
334.894
344.838
354.056
362.605
370.545
377.937
384.844
391.328
397.451
403.276
408.863
414.27
419.554
424.768
429.961
435.18
440.467
445.859
451.389
457.086
462.97
469.06
475.366
481.896
488.649
495.622
502.802
510.177
517.724
525.418
533.229
541.123
549.06
557
564.896
572.7
580.363
587.832
595.055
601.976
608.543
614.701
620.397
625.579
630.198
634.205
637.556
640.208
642.126
643.274
643.624
643.152
641.838
639.669
636.636
632.736
627.971
622.349
615.883
608.591
600.498
591.631
582.024
571.715
560.748
549.166
537.021
524.365
511.253
497.743
483.895
469.772
455.435
440.949
426.379
411.788
397.241
382.799
368.523
354.471
340.699
327.258
314.195
301.554
289.374
277.691
266.534
255.929
245.896
236.447
227.592
219.333
211.669
204.592
198.09
192.144
186.733
181.834
177.422
173.467
169.933
166.779
163.962
161.436
159.156
157.074
155.14
153.3
151.505
149.709
147.869
145.945
143.893
141.663
139.209
136.484
133.457
130.112
126.434
122.407
118.019
113.262
108.136
102.655
96.82
90.63
84.081
77.166
69.898
62.313
54.452
46.378
38.114
29.643
20.952
12.011
2.85
-6.417
-15.724
-25.033
-34.297
-43.54
-52.65
-61.301
-69.523
-77.637
-85.92
-94.785
-104.151
-113.214
-121.644
-129.643
-136.755
-142.178
-144.992
-143.714
-138.305
-130.476
-121.133
-110.5
-99.39
-88.595
-79.344
-73.845
-72.275
-72.58
-73.533
-74.413
-74.384
-73.171
-69.896
-62.7
-51.403
-37.508
-22.022
-5.804
10.548
27.148
43.62
58.978
73.016
86.193
98.822
111.271
123.634
135.574
146.97
157.905
168.322
178.108
187.137
195.226
202.292
208.371
213.464
217.557
220.619
222.578
223.385
223.013
221.437
218.644
214.624
209.368
202.872
195.141
186.187
176.031
164.699
152.217
138.619
123.943
108.24
91.579
74.033
55.677
36.591
16.855
-3.447
-24.224
-45.382
-66.828
-88.466
-110.201
-131.935
-153.568
-175.005
-196.148
-216.903
-237.18
-256.894
-275.959
-294.297
-311.834
-328.501
-344.236
-358.985
-372.697
-385.332
-396.857
-407.247
-416.484
-424.56
-431.47
-437.224
-441.846
-445.363
-447.812
-449.234
-449.669
-449.178
-447.841
-445.714
-442.838
-439.271
-435.065
-430.308
-425.138
-419.643
-413.859
-407.931
-402.062
-396.428
-391.224
-386.526
-382.258
-378.49
-375.458
-373.024
-370.71
-368.454
-366.398
-364.558
-363.615
-362.475
-357.985
-351.189
-345.127
-344.451
-358
-384.866
-415.71
-443.118
-455.925
-451.76
-441.724
-431.026
-425.01
-429.964
-440.341
-455.785
-479.329
-503.863
-527.776
-549.001
-561.529
-569.568
-576.724
-583.757
-593.665
-605.021
-615.758
-626.198
-636.066
-645.43
-654.621
-663.303
-671.155
-678.19
-684.441
-689.894
-694.532
-698.336
-701.287
-703.403
-704.745
-705.347
-705.207
-704.297
-702.668
-700.441
-697.721
-694.612
-691.144
-687.219
-682.832
-678.155
-673.077
-667.126
-660.206
-652.454
-643.826
-634.886
-624.726
-610.41
-592.61
-574.096
-559.344
-556.705
-565.681
-577.858
-584.929
-575.286
-548.073
-513.905
-481.245
-459.503
-450.225
-445.61
-439.677
-425.969
-403.974
-379.86
-359.572
-351.459
-355.429
-362.42
-363.892
-348.335
-314.74
-274.466
-236.4
-210.024
-197.317
-189.78
-182.076
-170.644
-154.29
-136.547
-119.111
-101.883
-85.034
-68.085
-50.925
-34.073
-17.713
-1.793
13.648
28.564
42.947
56.795
70.134
83.026
95.488
107.474
118.969
129.974
140.49
150.525
160.084
169.168
177.787
185.961
193.707
201.04
207.982
214.554
220.781
226.69
232.305
237.647
242.738
247.603
252.264
256.742
261.05
265.194
269.184
273.035
276.759
280.375
283.885
287.28
290.549
293.677
296.656
299.484
302.144
304.605
306.841
308.826
310.54
311.98
313.118
313.909
314.296
314.207
313.587
312.405
310.635
308.277
305.281
301.539
296.947
291.407
284.913
277.565
269.381
260.288
250.304
239.502
228.232
217.09
206.12
194.894
183.022
170.048
155.921
141.014
125.059
107.447
88.811
70.673
53.551
37.506
22.316
7.826
-0.14
7.256
31.698
68.493
103.94
119.04
106.482
67.525
6.914
-64.636
-139.179
-206.452
-248.782
-254.854
-223.112
-165.364
-105.666
-60.621
-35.583
-25.835
-19.178
-10.676
-0.689
9.498
16.858
22.287
28.116
34.824
43.21
53.906
66.834
82.098
99.32
117.261
135.188
152.965
170.567
188.15
205.711
223.011
239.947
256.589
272.949
288.977
304.548
319.44
333.503
346.668
358.887
370.149
380.421
389.656
397.817
404.872
410.812
415.652
419.411
422.11
423.781
424.458
424.191
423.045
421.082
418.36
414.936
410.86
406.192
401.004
395.368
389.364
383.068
376.554
369.898
363.176
356.462
349.828
343.34
337.058
331.041
325.343
320.015
315.104
310.649
306.684
303.236
300.326
297.969
296.173
294.941
294.266
294.138
294.54
295.448
296.834
298.665
300.904
303.507
306.428
309.618
313.023
316.589
320.257
323.97
327.669
331.294
334.788
338.095
341.161
343.935
346.37
348.423
350.055
351.23
351.918
352.095
351.741
350.84
349.383
347.366
344.79
341.662
337.992
333.798
329.1
323.923
318.296
312.253
305.829
299.064
292
284.68
277.15
269.459
261.654
253.783
245.895
238.038
230.257
222.597
215.097
207.797
200.731
193.93
187.422
181.229
175.369
169.858
164.705
159.917
155.495
151.436
147.735
144.381
141.362
138.66
136.256
134.13
132.258
130.613
129.17
127.9
126.775
125.764
124.837
123.964
123.114
122.258
121.365
120.409
119.362
118.2
116.9
115.442
113.808
111.983
109.955
107.715
105.255
102.574
99.67
96.544
93.202
89.65
85.897
81.954
77.833
73.546
69.11
64.538
59.845
55.048
50.161
45.199
40.177
35.11
30.011
24.894
19.773
14.661
9.571
4.515
-0.496
-5.45
-10.337
-15.145
-19.867
-24.494
-29.018
-33.431
-37.728
-41.902
-45.95
-49.865
-53.645
-57.286
-60.784
-64.137
-67.343
-70.396
-73.296
-76.036
-78.613
-81.022
-83.257
-85.31
-87.174
-88.841
-90.303
-91.552
-92.58
-93.379
-93.942
-94.263
-94.337
-94.16
-93.727
-93.038
-92.092
-90.888
-89.428
-87.715
-85.754
-83.55
-81.11
-78.44
-75.549
-72.448
-69.146
-65.653
-61.979
-58.135
-54.132
-49.985
-45.707
-41.313
-36.817
-32.236
-27.587
-22.887
-18.153
-13.402
-8.646
-3.897
0.829
5.517
10.147
14.705
19.178
23.557
27.833
31.998
36.046
39.975
43.79
47.499
51.106
54.611
58.008
61.294
64.476
67.574
70.615
73.623
76.608
79.582
82.552
85.528
88.517
91.512
94.487
97.419
100.286
103.077
105.8
108.464
111.036
113.444
115.568
117.284
118.533
119.328
119.717
119.733
119.353
118.524
117.299
115.871
114.305
112.394
109.65
105.59
100.186
94.011
87.748
81.599
75.797
71.064
68.747
70.405
76.804
87.241
100.384
115.748
132.919
150.91
167.88
181.295
189.144
190.968
187.183
177.3
160.945
138.409
110.949
80.844
50.508
22.195
-2.126
-19.722
-28.093
-25.717
-12.212
12.126
46.645
89.001
136.114
184.02
228.394
266.311
296.164
316.246
324.893
322.703
311.434
294.048
274.708
256.047
239.406
226.595
219.508
218.663
223.844
233.641
245.314
257.254
268.767
278.916
286.87
292.092
294.162
293.363
290.696
286.668
281.389
274.937
267.194
258.175
248.033
236.738
224.135
210.172
194.871
178.341
160.804
142.415
123.27
103.467
83.074
62.181
40.896
19.317
-2.463
-24.36
-46.291
-68.169
-89.904
-111.408
-132.598
-153.402
-173.758
-193.601
-212.861
-231.469
-249.352
-266.449
-282.713
-298.102
-312.584
-326.131
-338.725
-350.356
-361.024
-370.735
-379.504
-387.348
-394.293
-400.369
-405.616
-410.077
-413.803
-416.847
-419.264
-421.114
-422.458
-423.358
-423.879
-424.084
-424.037
-423.801
-423.436
-423.002
-422.556
-422.151
-421.836
-421.658
-421.656
-421.868
-422.323
-423.047
-424.059
-425.373
-426.997
-428.931
-431.172
-433.712
-436.534
-439.621
-442.948
-446.487
-450.207
-454.074
-458.05
-462.095
-466.168
-470.226
-474.225
-478.121
-481.869
-485.427
-488.751
-491.8
-494.535
-496.919
-498.917
-500.496
-501.629
-502.29
-502.456
-502.108
-501.233
-499.818
-497.856
-495.342
-492.275
-488.659
-484.499
-479.802
-474.58
-468.846
-462.614
-455.901
-448.724
-441.102
-433.054
-424.601
-415.762
-406.558
-397.008
-387.133
-376.953
-366.486
-355.751
-344.766
-333.548
-322.114
-310.479
-298.658
-286.667
-274.519
-262.229
-249.81
-237.276
-224.642
-211.922
-199.133
-186.289
-173.41
-160.513
-147.621
-134.754
-121.939
-109.202
-96.572
-84.08
-71.76
-59.649
-47.784
-36.206
-24.956
-14.077
-3.614
6.389
15.886
24.833
33.184
40.897
47.929
54.241
59.795
64.558
68.498
71.59
73.811
75.144
75.579
75.11
73.738
71.471
68.324
64.318
59.482
53.852
47.473
40.396
32.68
24.39
15.599
6.385
-3.166
-12.966
-22.918
-32.925
-42.885
-52.693
-62.244
-71.432
-80.149
-88.291
-95.755
-102.442
-108.254
-113.101
-116.898
-119.566
-121.033
-121.237
-120.123
-117.646
-113.773
-108.478
-101.748
-93.582
-83.988
-72.988
-60.613
-46.909
-31.93
-15.742
1.578
19.944
39.26
59.42
80.313
101.819
123.811
146.159
168.726
191.375
213.964
236.35
258.391
279.947
300.877
321.046
340.321
358.577
375.693
391.554
406.055
419.099
430.598
440.474
448.659
455.098
459.745
462.567
463.541
462.659
459.921
455.342
448.944
440.763
430.844
419.243
406.025
391.261
375.035
357.432
338.55
318.488
297.351
275.248
252.291
228.595
204.274
179.444
154.22
128.717
103.045
77.313
51.626
26.084
0.781
-24.193
-48.756
-72.834
-96.359
-119.272
-141.521
-163.065
-183.868
-203.905
-223.158
-241.617
-259.28
-276.153
-292.249
-307.589
-322.198
-336.109
-349.359
-361.99
-374.049
-385.585
-396.651
-407.301
-417.591
-427.579
-437.321
-446.875
-456.295
-465.636
-474.948
-484.28
