Name
Date of Birth,"Dec 28, 2003"
Recorded Date,2024-09-19 10:00:44 -0500
Classification,Sinus Rhythm
Symptoms,
Software Version,1.90
Device,"Watch4,4"
Sample Rate,512.711 hertz


Lead,Lead I
Unit,µV

23.204
24.076
24.965
25.862
26.756
27.637
28.495
29.32
30.103
30.835
31.505
32.105
32.627
33.064
33.408
33.653
33.794
33.826
33.745
33.549
33.235
32.803
32.251
31.581
30.793
29.89
28.873
27.746
26.513
25.178
23.747
22.225
20.618
18.932
17.175
15.352
13.472
11.542
9.569
7.562
5.528
3.477
1.417
-0.644
-2.696
-4.731
-6.739
-8.714
-10.647
-12.532
-14.36
-16.128
-17.828
-19.457
-21.01
-22.482
-23.872
-25.176
-26.392
-27.519
-28.555
-29.5
-30.355
-31.123
-31.804
-32.403
-32.921
-33.363
-33.732
-34.035
-34.275
-34.458
-34.591
-34.679
-34.732
-34.757
-34.766
-34.77
-34.779
-34.804
-34.857
-34.947
-35.085
-35.278
-35.533
-35.853
-36.244
-36.713
-37.264
-37.904
-38.64
-39.476
-40.416
-41.463
-42.616
-43.875
-45.238
-46.697
-48.247
-49.881
-51.601
-53.412
-55.318
-57.313
-59.388
-61.527
-63.712
-65.924
-68.139
-70.318
-72.423
-74.418
-76.267
-77.953
-79.465
-80.786
-81.886
-82.729
-83.278
-83.528
-83.501
-83.201
-82.64
-81.819
-80.739
-79.462
-78.073
-76.647
-75.267
-73.98
-72.79
-71.754
-70.972
-70.456
-70.16
-69.907
-69.351
-68.251
-66.472
-63.808
-60.11
-55.402
-49.812
-43.775
-38.021
-33.055
-29.267
-27.088
-26.551
-27.231
-28.376
-28.705
-26.72
-21.265
-11.117
5.06
27.966
57.64
93.352
133.497
176.311
220.08
262.5
300.831
332.424
354.733
366.14
365.787
353.284
329.453
295.202
251.684
200.094
140.775
77.007
14.849
-39.134
-77.682
-98.84
-106.189
-103.311
-94.676
-82.547
-66.202
-47.033
-27.059
-8.105
7.295
17.782
22.833
22.37
17.307
9.314
0.334
-8.263
-15.792
-21.755
-25.685
-27.384
-26.953
-25.034
-22.726
-20.707
-19.204
-18.361
-18.209
-18.729
-19.896
-21.445
-22.913
-24.028
-24.671
-24.798
-24.466
-23.691
-22.448
-20.777
-18.75
-16.421
-13.842
-11.039
-8.019
-4.819
-1.493
1.894
5.283
8.633
11.916
15.107
18.188
21.142
23.952
26.612
29.107
31.424
33.55
35.471
37.175
38.655
39.909
40.941
41.757
42.358
42.747
42.923
42.89
42.649
42.203
41.554
40.709
39.676
38.465
37.092
35.57
33.913
32.138
30.261
28.298
26.265
24.179
22.056
19.911
17.761
15.624
13.516
11.452
9.449
7.521
5.682
3.946
2.326
0.833
-0.524
-1.735
-2.793
-3.691
-4.424
-4.989
-5.383
-5.604
-5.655
-5.536
-5.251
-4.806
-4.207
-3.462
-2.579
-1.568
-0.441
0.791
2.116
3.521
4.995
6.523
8.092
9.688
11.299
12.909
14.507
16.079
17.611
19.091
20.506
21.845
23.097
24.25
25.295
26.222
27.023
27.69
28.215
28.594
28.821
28.893
28.808
28.563
28.158
27.594
26.872
25.995
24.965
23.786
22.462
20.998
19.4
17.671
15.818
13.847
11.764
9.573
7.281
4.894
2.417
-0.144
-2.783
-5.496
-8.275
-11.116
-14.014
-16.962
-19.956
-22.991
-26.062
-29.164
-32.293
-35.446
-38.618
-41.807
-45.009
-48.222
-51.442
-54.667
-57.895
-61.122
-64.346
-67.563
-70.771
-73.965
-77.142
-80.297
-83.424
-86.519
-89.574
-92.582
-95.537
-98.431
-101.256
-104.005
-106.668
-109.238
-111.708
-114.07
-116.315
-118.436
-120.425
-122.276
-123.981
-125.532
-126.923
-128.149
-129.203
-130.081
-130.779
-131.296
-131.627
-131.771
-131.729
-131.502
-131.091
-130.499
-129.731
-128.793
-127.693
-126.44
-125.047
-123.524
-121.886
-120.148
-118.325
-116.435
-114.494
-112.519
-110.528
-108.539
-106.572
-104.646
-102.781
-100.999
-99.318
-97.761
-96.35
-95.104
-94.04
-93.174
-92.521
-92.094
-91.906
-91.964
-92.276
-92.845
-93.676
-94.773
-96.138
-97.768
-99.658
-101.799
-104.184
-106.808
-109.661
-112.725
-115.986
-119.43
-123.047
-126.837
-130.794
-134.904
-139.151
-143.515
-147.974
-152.509
-157.081
-161.636
-166.114
-170.455
-174.618
-178.581
-182.309
-185.767
-188.916
-191.706
-194.116
-196.133
-197.722
-198.857
-199.53
-199.755
-199.615
-199.237
-198.734
-198.243
-197.905
-197.788
-197.91
-198.206
-198.496
-198.604
-198.401
-197.716
-196.36
-194.302
-191.742
-189.116
-187.104
-186.335
-187.145
-189.811
-194.696
-201.838
-210.71
-220.231
-228.635
-234.025
-235.037
-230.337
-218.385
-198.142
-169.28
-132.398
-89.365
-42.507
6.046
53.594
96.858
132.734
158.352
171.727
172.085
158.973
132.335
93.482
44.775
-10.821
-69.748
-128.803
-185.115
-235.333
-276.438
-306.822
-325.859
-333.84
-331.946
-321.336
-303.562
-281.276
-257.318
-233.797
-212.39
-194.265
-179.995
-170.224
-165.173
-164.082
-165.777
-169.249
-173.48
-177.523
-180.753
-182.492
-182.279
-180.221
-176.698
-172.109
-166.98
-161.893
-157.203
-153.215
-150.123
-147.853
-146.249
-145.145
-144.289
-143.4
-142.327
-140.97
-139.279
-137.299
-135.06
-132.581
-129.921
-127.133
-124.247
-121.289
-118.274
-115.204
-112.107
-109.008
-105.921
-102.859
-99.822
-96.803
-93.794
-90.786
-87.759
-84.703
-81.602
-78.449
-75.238
-71.963
-68.617
-65.189
-61.669
-58.046
-54.313
-50.464
-46.495
-42.407
-38.201
-33.883
-29.462
-24.946
-20.342
-15.657
-10.9
-6.08
-1.206
3.71
8.657
13.622
18.591
23.55
28.483
33.375
38.212
42.979
47.664
52.254
56.735
61.097
65.328
69.419
73.361
77.146
80.766
84.217
87.493
90.593
93.515
96.258
98.824
101.216
103.436
105.492
107.388
109.133
110.734
112.202
113.547
114.78
115.912
116.956
117.925
118.83
119.687
120.506
121.302
122.087
122.872
123.669
124.49
125.343
126.238
127.183
128.186
129.251
130.386
131.593
132.875
134.234
135.671
137.185
138.775
140.438
142.171
143.969
145.827
147.738
149.696
151.692
153.72
155.77
157.834
159.904
161.969
164.023
166.055
168.059
170.025
171.946
173.815
175.626
177.372
179.048
180.651
182.176
183.622
184.985
186.266
187.464
188.579
189.613
190.567
191.444
192.247
192.98
193.647
194.252
194.802
195.301
195.756
196.173
196.557
196.914
197.252
197.574
197.887
198.196
198.506
198.822
199.147
199.486
199.841
200.217
200.615
201.037
201.483
201.954
202.449
202.967
203.507
204.066
204.643
205.235
205.84
206.455
207.076
207.701
208.326
208.947
209.562
210.165
210.754
211.324
211.873
212.399
212.899
213.372
213.815
214.23
214.615
214.971
215.298
215.596
215.865
216.106
216.321
216.512
216.682
216.832
216.967
217.089
217.203
217.313
217.421
217.529
217.638
217.748
217.859
217.972
218.086
218.2
218.316
218.434
218.557
218.687
218.824
218.968
219.117
219.267
219.417
219.56
219.692
219.808
219.903
219.974
220.019
220.036
220.021
219.966
219.862
219.691
219.44
219.098
218.655
218.106
217.448
216.683
215.819
214.874
213.866
212.812
211.729
210.626
209.513
208.39
207.27
206.173
205.109
204.076
203.066
202.058
201.042
200.02
198.964
197.816
196.495
194.899
192.94
190.558
187.68
184.215
180.118
175.403
170.2
164.764
159.355
154.175
149.408
145.282
141.909
139.193
136.82
134.195
130.704
126.013
119.844
111.847
102.033
90.932
79.538
69.461
62.362
59.403
61.848
71.108
88.031
112.792
144.65
181.827
222.38
264.509
305.668
342.818
373.145
393.952
403.451
400.678
384.377
354.619
313.853
264.803
210.394
151.316
84.759
11.204
-64.638
-133.772
-183.541
-207.101
-204.578
-180.616
-143.662
-100.68
-56.401
-15.686
16.357
36.014
42.12
36.339
24.337
12.686
4.705
2.014
3.721
5.96
7.298
7.574
6.464
5.979
6.927
8.684
11.203
13.562
15.03
15.607
15.184
13.873
11.939
9.62
7.201
4.866
2.686
0.674
-1.213
-2.984
-4.644
-6.241
-7.836
-9.49
-11.242
-13.109
-15.094
-17.218
-19.519
-22.023
-24.746
-27.69
-30.841
-34.184
-37.704
-41.381
-45.191
-49.115
-53.13
-57.217
-61.356
-65.529
-69.713
-73.881
-78.006
-82.06
-86.016
-89.854
-93.553
-97.097
-100.469
-103.658
-106.652
-109.44
-112.01
-114.35
-116.451
-118.303
-119.9
-121.237
-122.31
-123.12
-123.668
-123.957
-123.995
-123.787
-123.341
-122.666
-121.772
-120.67
-119.372
-117.893
-116.245
-114.445
-112.509
-110.454
-108.299
-106.06
-103.756
-101.406
-99.027
-96.638
-94.255
-91.896
-89.577
-87.314
-85.122
-83.016
-81.009
-79.113
-77.34
-75.699
-74.2
-72.85
-71.655
-70.619
-69.747
-69.041
-68.501
-68.129
-67.923
-67.882
-68.002
-68.279
-68.708
-69.285
-70
-70.848
-71.82
-72.907
-74.099
-75.388
-76.762
-78.213
-79.729
-81.3
-82.916
-84.567
-86.243
-87.932
-89.627
-91.318
-92.996
-94.653
-96.281
-97.873
-99.422
-100.922
-102.367
-103.751
-105.069
-106.317
-107.49
-108.586
-109.601
-110.533
-111.378
-112.137
-112.806
-113.385
-113.874
-114.271
-114.577
-114.79
-114.911
-114.939
-114.875
-114.719
-114.47
-114.129
-113.696
-113.17
-112.55
-111.835
-111.024
-110.115
-109.107
-107.996
-106.78
-105.457
-104.023
-102.477
-100.814
-99.032
-97.127
-95.096
-92.935
-90.639
-88.206
-85.633
-82.916
-80.052
-77.04
-73.876
-70.561
-67.094
-63.473
-59.699
-55.771
-51.692
-47.462
-43.085
-38.562
-33.898
-29.098
-24.169
-19.119
-13.956
-8.69
-3.331
2.108
7.615
13.176
18.778
24.405
30.042
35.672
41.277
46.837
52.334
57.748
63.059
68.247
73.293
78.176
82.877
87.379
91.663
95.71
99.503
103.023
106.251
109.171
111.764
114.013
115.902
117.419
118.553
119.294
119.637
119.58
119.121
118.264
117.009
115.359
113.319
110.893
108.089
104.919
101.396
97.537
93.357
88.879
84.129
79.132
73.91
68.479
62.846
57.026
51.042
44.921
38.692
32.389
26.041
19.692
13.404
7.237
1.248
-4.52
-10.053
-15.33
-20.315
-24.969
-29.236
-33.087
-36.535
-39.581
-42.214
-44.424
-46.191
-47.55
-48.62
-49.509
-50.321
-51.139
-51.967
-52.859
-53.949
-55.276
-56.818
-58.434
-59.763
-60.522
-60.606
-59.822
-57.952
-55.007
-51.048
-46.448
-42.104
-38.746
-36.869
-37.065
-39.661
-44.344
-50.476
-56.83
-61.358
-62.248
-57.854
-46.277
-26.156
2.847
40.296
84.728
133.474
183.769
232.518
275.854
310.145
332.445
340.481
333.056
310.263
272.9
222.803
163.128
97.548
29.887
-35.934
-96.173
-147.712
-188.184
-216.318
-232.199
-236.749
-231.279
-217.754
-198.95
-177.825
-157.193
-139.379
-125.621
-116.581
-112.919
-114.671
-120.966
-130.533
-141.692
-152.753
-162.88
-171.541
-178.027
-182.056
-183.753
-183.474
-182.089
-180.58
-179.376
-178.721
-178.876
-179.85
-181.625
-184.124
-186.962
-189.714
-192.16
-194.171
-195.711
-196.833
-197.533
-197.794
-197.677
-197.245
-196.559
-195.662
-194.555
-193.234
-191.718
-190.046
-188.273
-186.447
-184.594
-182.729
-180.862
-178.997
-177.143
-175.306
-173.476
-171.652
-169.829
-168.003
-166.181
-164.361
-162.536
-160.696
-158.826
-156.912
-154.947
-152.923
-150.833
-148.672
-146.436
-144.121
-141.727
-139.252
-136.693
-134.045
-131.303
-128.464
-125.525
-122.486
-119.344
-116.099
-112.754
-109.31
-105.771
-102.141
-98.424
-94.625
-90.751
-86.807
-82.802
-78.745
-74.642
-70.505
-66.343
-62.168
-57.991
-53.823
-49.676
-45.561
-41.491
-37.477
-33.53
-29.662
-25.884
-22.204
-18.635
-15.184
-11.86
-8.671
-5.623
-2.722
0.026
2.618
5.052
7.325
9.438
11.392
13.189
14.831
16.323
17.671
18.88
19.957
20.911
21.749
22.482
23.119
23.67
24.146
24.557
24.916
25.232
25.517
25.782
26.037
26.292
26.557
26.841
27.152
27.498
27.886
28.322
28.81
29.355
29.96
30.626
31.354
32.144
32.994
33.902
34.865
35.876
36.93
38.021
39.141
40.282
41.434
42.589
43.736
44.866
45.968
47.032
48.048
49.006
49.897
50.711
51.44
52.075
52.609
53.035
53.348
53.541
53.612
53.558
53.377
53.069
52.633
52.073
51.391
50.591
49.68
48.663
47.548
46.346
45.067
43.723
42.326
40.89
39.43
37.96
36.495
35.05
33.641
32.282
30.988
29.774
28.656
27.646
26.759
26.008
25.406
24.964
24.694
24.605
24.705
25.002
25.502
26.21
27.13
28.264
29.615
31.182
32.965
34.961
37.166
39.574
42.177
44.963
47.923
51.044
54.311
57.711
61.228
64.847
68.552
72.327
76.155
80.018
83.897
87.774
91.629
95.442
99.192
102.859
106.422
109.864
113.168
116.317
119.295
122.086
124.676
127.055
129.212
131.136
132.816
134.242
135.405
136.303
136.932
137.29
137.371
137.175
136.703
135.96
134.95
133.672
132.121
130.282
128.149
125.72
122.995
119.973
116.663
113.079
109.25
105.228
101.058
96.773
92.397
87.945
83.431
78.874
74.307
69.764
65.286
60.924
56.724
52.728
48.941
45.331
41.817
38.289
34.617
30.659
26.347
21.7
16.841
12.002
7.385
3.1
-0.743
-3.98
-6.621
-8.929
-11.408
-14.853
-19.933
-26.898
-35.922
-47.258
-60.82
-76.037
-91.837
-106.447
-118.054
-125.418
-127.291
-122.278
-109.495
-88.661
-60.317
-26.143
11.827
51.726
91.058
126.765
156.059
176.472
186.24
184.533
170.843
144.885
108.281
64.545
16.403
-33.713
-84.499
-136.532
-186.365
-227.763
-255.843
-265.666
-257.792
-238.296
-212.145
-184.714
-159.355
-135.813
-114.421
-95.165
-78.105
-64.523
-55.101
-49.88
-48.103
-48.072
-48.334
-48.196
-47.441
-46.084
-43.99
-40.804
-36.521
-31.64
-26.822
-22.5
-18.752
-15.455
-12.52
-10.031
-8.05
-6.449
-4.942
-3.294
-1.409
0.69
2.932
5.298
7.814
10.466
13.193
15.92
18.578
21.12
23.53
25.78
27.845
29.704
31.336
32.73
33.889
34.815
35.516
36.003
36.278
36.336
36.181
35.812
35.236
34.458
33.486
32.325
30.982
29.468
27.791
25.961
23.984
21.866
19.611
17.224
14.712
12.085
9.353
6.527
3.621
0.646
-2.385
-5.455
-8.554
-11.668
-14.786
-17.895
-20.985
-24.042
-27.054
-30.009
-32.893
-35.695
-38.401
-41.001
-43.483
-45.837
-48.052
-50.121
-52.036
-53.791
-55.38
-56.798
-58.041
-59.107
-59.994
-60.701
-61.229
-61.578
-61.751
-61.752
-61.585
-61.255
-60.77
-60.134
-59.357
-58.444
-57.406
-56.249
-54.983
-53.616
-52.159
-50.62
-49.009
-47.335
-45.608
-43.837
-42.031
-40.198
-38.347
-36.483
-34.614
-32.746
-30.884
-29.033
-27.197
-25.38
-23.585
-21.816
-20.073
-18.358
-16.673
-15.018
-13.393
-11.8
-10.236
-8.702
-7.198
-5.723
-4.277
-2.86
-1.47
-0.109
1.223
2.526
3.797
5.037
6.241
7.408
8.533
9.611
10.638
11.607
12.511
13.344
14.096
14.76
15.326
15.786
16.13
16.349
16.431
16.37
16.153
15.773
15.221
14.488
13.566
12.45
11.132
9.609
7.875
5.929
3.769
1.394
-1.194
-3.994
-7.001
-10.21
-13.612
-17.2
-20.961
-24.882
-28.95
-33.147
-37.456
-41.857
-46.331
-50.856
-55.41
-59.969
-64.511
-69.009
-73.44
-77.777
-81.997
-86.072
-89.979
-93.692
-97.188
-100.446
-103.445
-106.165
-108.588
-110.697
-112.476
-113.913
-114.996
-115.715
-116.064
-116.036
-115.631
-114.85
-113.696
-112.177
-110.301
-108.08
-105.528
-102.66
-99.493
-96.046
-92.341
-88.399
-84.246
-79.907
-75.412
-70.789
-66.069
-61.284
-56.466
-51.648
-46.859
-42.131
-37.492
-32.972
-28.598
-24.397
-20.389
-16.595
-13.034
-9.726
-6.69
-3.938
-1.483
0.667
2.501
4.008
5.18
6.017
6.523
6.703
6.557
6.079
5.256
4.083
2.563
0.701
-1.499
-4.029
-6.868
-9.974
-13.284
-16.726
-20.248
-23.814
-27.4
-30.985
-34.536
-38.002
-41.33
-44.473
-47.391
-50.052
-52.419
-54.473
-56.242
-57.793
-59.28
-60.908
-62.796
-64.955
-67.298
-69.624
-71.778
-73.734
-75.414
-76.639
-77.38
-77.83
-78.497
-80.221
-83.644
-88.94
-96.081
-105.053
-115.757
-127.772
-140.099
-151.089
-159.139
-163.25
-162.831
-157.195
-145.491
-127.196
-102.432
-72.307
-38.43
-1.99
35.972
73.696
108.719
138.509
160.751
174.048
177.651
170.369
151.214
121.164
82.958
39.479
-6.691
-55.343
-107.447
-160.59
-209.435
-246.806
-266.251
-266.1
-249.157
-220.24
-183.667
-143.003
-101.737
-64.451
-36.671
-21.89
-19.69
-25.388
-33.151
-38.961
-41.893
-44.173
-47.518
-51.998
-56.544
-59.205
-59.123
-56.717
-52.692
-47.878
-42.941
-38.13
-33.645
-29.684
-26.254
-23.285
-20.657
-18.172
-15.579
-12.748
-9.635
-6.218
-2.553
1.318
5.385
9.597
13.87
18.14
22.355
26.474
30.499
34.428
38.248
41.949
45.518
48.949
52.25
55.428
58.477
61.386
64.143
66.734
69.157
71.412
73.497
75.412
77.157
78.733
80.147
81.405
82.512
83.473
84.289
84.964
85.503
85.915
86.208
86.395
86.486
86.493
86.43
86.312
86.151
85.96
85.751
85.536
85.327
85.134
84.971
84.848
84.778
84.772
84.84
84.994
85.242
85.593
86.055
86.634
87.334
88.16
89.113
90.196
91.41
92.753
94.224
95.821
97.54
99.375
101.321
103.37
105.515
107.746
110.053
112.426
114.854
117.325
119.829
122.352
124.883
127.41
129.919
132.399
134.837
137.222
139.54
141.781
143.934
145.989
147.935
149.764
151.467
153.038
154.468
155.753
156.887
157.867
158.689
159.352
159.854
160.195
160.376
160.4
160.269
159.986
159.557
158.987
158.282
157.449
156.495
155.429
154.259
152.994
151.645
150.219
148.729
147.182
145.589
143.961
142.306
140.634
138.955
137.278
135.612
133.964
132.344
130.758
129.213
127.717
126.274
124.889
123.567
122.312
121.125
120.008
118.964
117.991
117.09
116.26
115.499
114.806
114.176
113.606
113.094
112.633
112.221
111.851
111.519
111.22
110.95
110.703
110.475
110.262
110.059
109.862
109.667
109.47
109.269
109.059
108.838
108.605
108.357
108.095
107.818
107.528
107.226
106.914
106.597
106.277
105.959
105.648
105.348
105.065
104.806
104.577
104.384
104.235
104.136
104.095
104.117
104.21
104.379
104.628
104.961
105.383
105.896
106.503
107.206
108.007
108.906
109.905
111.003
112.198
113.489
114.871
116.338
117.882
119.494
121.163
122.878
124.629
126.402
128.187
129.973
131.749
133.506
135.231
136.912
138.539
140.099
141.579
142.968
144.254
145.429
146.486
147.418
148.218
148.881
149.401
149.773
149.986
150.024
149.874
149.531
148.992
148.259
147.341
146.248
144.998
143.626
142.166
140.657
139.139
137.639
136.178
134.779
133.474
132.305
131.299
130.463
129.791
129.28
128.937
128.758
128.701
128.671
128.55
128.216
127.576
126.536
124.972
122.845
120.177
117.067
113.763
110.508
107.446
104.796
102.818
101.5
100.666
99.953
98.679
96.383
92.944
88.093
81.534
73.508
64.688
56.344
50.353
48.133
50.572
58.808
74.062
96.969
127.504
164.513
205.834
249.528
293.786
336.126
373.543
403.089
422.264
429.506
424.07
405.373
373.314
329.626
277.727
221.088
162.698
103.387
42.69
-17.225
-72.149
-115.472
-139.698
-142.725
-126.676
-98.026
-67.341
-41.236
-23.212
-13.984
-9.283
-7.029
-6.932
-8.011
-11.611
-17.67
-24.457
-31.507
-37.828
-42.463
-45.183
-45.783
-44.481
-42.069
-39.532
-37.422
-35.902
-35.077
-34.973
-35.585
-36.924
-38.752
-40.611
-42.238
-43.507
-44.36
-44.855
-45.009
-44.784
-44.211
-43.36
-42.287
-41.053
-39.696
-38.214
-36.637
-35.01
-33.382
-31.824
-30.382
-29.083
-27.95
-26.993
-26.222
-25.649
-25.281
-25.113
-25.144
-25.369
-25.787
-26.398
-27.201
-28.183
-29.329
-30.619
-32.037
-33.569
-35.202
-36.924
-38.72
-40.577
-42.481
-44.422
-46.386
-48.357
-50.32
-52.255
-54.146
-55.978
-57.736
-59.406
-60.975
-62.432
-63.767
-64.973
-66.041
-66.966
-67.742
-68.366
-68.837
-69.153
-69.315
-69.327
-69.192
-68.916
-68.506
-67.973
-67.325
-66.576
-65.736
-64.821
-63.844
-62.821
-61.768
-60.703
-59.642
-58.603
-57.604
-56.664
-55.799
-55.027
-54.365
-53.827
-53.429
-53.185
-53.105
-53.201
-53.482
-53.956
-54.631
-55.51
-56.598
-57.897
-59.407
-61.128
-63.058
-65.192
-67.525
-70.051
-72.762
-75.648
-78.7
-81.906
-85.254
-88.731
-92.322
-96.014
-99.792
-103.639
-107.541
-111.481
-115.444
-119.414
-123.376
-127.317
-131.222
-135.079
-138.876
-142.6
-146.243
-149.794
-153.245
-156.59
-159.822
-162.935
-165.926
-168.792
-171.529
-174.138
-176.617
-178.968
-181.19
-183.285
-185.258
-187.109
-188.844
-190.467
-191.982
-193.396
-194.714
-195.941
-197.084
-198.148
-199.14
-200.064
-200.925
-201.729
-202.48
-203.182
-203.839
-204.454
-205.029
-205.566
-206.066
-206.53
-206.959
-207.351
-207.707
-208.025
-208.304
-208.544
-208.743
-208.901
-209.015
-209.084
-209.107
-209.082
-209.007
-208.879
-208.696
-208.457
-208.158
-207.799
-207.379
-206.898
-206.354
-205.748
-205.08
-204.352
-203.563
-202.716
-201.812
-200.853
-199.841
-198.781
-197.679
-196.539
-195.366
-194.167
-192.947
-191.712
-190.467
-189.217
-187.966
-186.718
-185.477
-184.25
-183.039
-181.852
-180.692
-179.567
-178.483
-177.447
-176.462
-175.531
-174.656
-173.838
-173.079
-172.378
-171.731
-171.135
-170.587
-170.085
-169.63
-169.218
-168.842
-168.496
-168.172
-167.868
-167.578
-167.295
-167.008
-166.707
-166.39
-166.062
-165.733
-165.411
-165.094
-164.777
-164.46
-164.139
-163.804
-163.427
-162.962
-162.361
-161.592
-160.643
-159.511
-158.189
-156.662
-154.911
-152.917
-150.681
-148.202
-145.461
-142.44
-139.145
-135.623
-131.981
-128.378
-124.949
-121.829
-119.149
-116.956
-115.241
-113.921
-112.809
-111.729
-110.576
-109.189
-107.378
-105.195
-102.858
-100.76
-99.507
-99.453
-100.661
-103.339
-107.787
-113.855
-121.004
-128.193
-133.798
-136.578
-135.711
-130.053
-118.334
-99.775
-74.119
-42.066
-5.315
34.495
75.616
115.58
151.576
180.693
200.173
208.119
203.341
185.59
156.043
116.551
69.117
14.577
-46.994
-113.503
-179.665
-236.694
-275.879
-293.243
-290.622
-274.931
-253.339
-230.283
-207.61
-184.717
-161.665
-139.728
-120.249
-105.162
-95.67
-91.418
-91.387
-93.91
-97.028
-99.66
-101.373
-101.7
-100.24
-96.893
-91.789
-85.532
-79.131
-73.145
-67.726
-62.977
-58.905
-55.49
-52.708
-50.34
-47.986
-45.399
-42.498
-39.264
-35.761
-32.024
-28.048
-23.866
-19.554
-15.181
-10.797
-6.442
-2.131
2.107
6.223
10.182
13.954
17.521
20.884
24.045
27.014
29.8
32.419
34.88
37.189
39.357
41.395
43.313
45.125
46.847
48.498
50.099
51.669
53.226
54.782
56.35
57.939
59.558
61.213
62.913
64.664
66.476
68.356
70.312
72.348
74.469
76.677
78.971
81.35
83.808
86.339
88.936
91.59
94.291
97.03
99.793
102.568
105.342
108.1
110.828
113.51
116.129
118.67
121.116
123.45
125.657
127.722
129.63
131.366
132.917
134.271
135.416
136.343
137.042
137.505
137.726
137.7
137.424
136.897
136.118
135.09
133.817
132.304
130.559
128.591
126.41
124.027
121.456
118.71
115.805
112.756
109.579
106.291
102.908
99.449
95.93
92.369
88.78
85.182
81.589
78.017
74.479
70.988
67.557
64.197
60.918
57.728
54.634
51.643
48.758
45.984
43.321
40.771
38.332
36.002
33.777
31.652
29.621
27.676
25.809
24.01
22.27
20.579
18.924
17.295
15.681
14.071
12.453
10.816
9.15
7.445
5.691
3.879
2.002
0.051
-1.979
-4.093
-6.296
-8.591
-10.979
-13.46
-16.035
-18.702
-21.457
-24.297
-27.218
-30.211
-33.271
-36.388
-39.553
-42.754
-45.98
-49.218
-52.456
-55.679
-58.875
-62.029
-65.128
-68.157
-71.103
-73.952
-76.689
-79.301
-81.775
-84.097
-86.255
-88.238
-90.034
-91.634
-93.03
-94.214
-95.179
-95.919
-96.429
-96.705
-96.745
-96.546
-96.107
-95.429
-94.513
-93.364
-91.987
-90.388
-88.575
-86.555
-84.339
-81.937
-79.359
-76.615
-73.717
-70.676
-67.506
-64.221
-60.837
-57.367
-53.831
-50.246
-46.63
-43.001
-39.376
-35.769
-32.196
-28.67
-25.205
-21.813
-18.505
-15.293
-12.189
-9.208
-6.361
-3.658
-1.106
1.287
3.519
5.58
7.468
9.187
10.733
12.105
13.295
14.284
15.067
15.644
16.016
16.19
16.172
15.968
15.604
15.121
14.56
13.966
13.366
12.761
12.171
11.619
11.134
10.756
10.493
10.331
10.275
10.343
10.557
10.929
11.401
11.856
12.174
12.24
11.993
11.388
10.328
8.789
6.822
4.547
2.251
0.202
-1.486
-2.653
-3.172
-3.162
-2.781
-2.322
-2.377
-3.294
-5.257
-8.615
-13.367
-19.013
-24.861
-29.741
-32.185
-31.12
-25.492
-14.031
4.095
29.061
60.367
96.805
136.116
176.021
214.8
249.787
279.645
303.481
317.696
320.156
308.486
280.86
241.77
195.211
144.567
93.643
41.286
-10.505
-56.005
-90.774
-108.676
-108.599
-95.453
-73.356
-47.389
-20.914
6.223
33.029
58.226
80.82
98.825
110.906
117
117.826
114.783
109.655
104.037
98.808
94.619
92.202
91.873
93.589
97.064
101.492
105.97
110.093
113.628
116.371
118.326
119.498
119.912
119.859
119.698
119.606
119.67
119.904
120.23
120.629
121.118
121.651
122.169
122.619
122.956
123.163
123.245
123.202
123.035
122.744
122.329
121.802
121.184
120.503
119.789
119.062
118.335
117.619
116.929
116.281
115.697
115.192
114.782
114.486
114.318
114.299
114.442
114.76
115.258
115.942
116.811
117.868
119.114
120.55
122.174
123.986
125.98
128.153
130.496
133.002
135.656
138.445
141.353
144.361
147.451
150.605
153.801
157.02
160.24
163.44
166.599
169.693
172.703
175.605
178.379
181.004
183.459
185.725
187.785
189.621
191.219
192.566
193.647
194.455
194.978
195.211
195.148
194.786
194.122
193.158
191.895
190.337
188.49
186.364
183.967
181.312
178.411
175.28
171.934
168.39
164.666
160.782
156.756
152.609
148.361
144.032
139.643
135.214
130.765
126.317
121.887
117.495
113.157
108.89
104.709
100.628
96.659
92.813
89.102
85.533
82.114
78.849
75.744
72.801
70.021
67.403
64.945
62.643
60.492
58.486
56.616
54.874
53.249
51.731
50.308
48.97
47.703
46.495
45.333
44.203
43.092
41.986
40.873
39.74
38.574
37.363
36.098
34.768
33.364
31.879
30.304
28.633
26.861
24.985
23.001
20.907
18.703
16.391
13.974
11.459
8.85
6.156
3.387
0.555
-2.329
-5.254
-8.208
-11.179
-14.154
-17.118
-20.059
-22.962
-25.813
-28.594
-31.286
-33.869
-36.325
-38.638
-40.792
-42.774
-44.569
-46.161
-47.542
-48.703
-49.637
-50.332
-50.77
-50.932
-50.812
-50.414
-49.753
-48.841
-47.686
-46.301
-44.707
-42.932
-40.995
-38.903
-36.642
-34.199
-31.573
-28.781
-25.856
-22.832
-19.725
-16.533
-13.251
-9.89
-6.459
-2.963
0.619
4.32
8.141
12.039
15.931
19.735
23.397
26.889
30.202
33.314
36.188
38.779
41.05
42.984
44.556
45.728
46.426
46.567
46.122
45.121
43.647
41.775
39.544
36.97
34.064
30.857
27.394
23.715
19.856
15.846
11.74
7.62
3.594
-0.227
-3.785
-7.077
-10.133
-12.988
-15.64
-18.058
-20.204
-22.054
-23.598
-24.838
-25.797
-26.513
-27.066
-27.552
-28.11
-28.912
-30.004
-31.335
-32.759
-34.016
-34.951
-35.567
-35.789
-35.473
-34.676
-33.57
-32.554
-32.321
-33.188
-35.108
-38.129
-42.326
-47.586
-53.625
-59.573
-64.015
-66.086
-65.307
-61.064
-52.697
-39.392
-20.501
3.56
31.072
60.223
89.465
117.522
144.748
171.869
197.716
219.128
229.682
221.714
192.006
143.754
84.911
24.196
-34.154
-91.893
-151.439
-211.552
-266.37
-306.832
-326.632
-324.619
-304.472
-273.013
-237.592
-205.313
-180.74
-166.291
-161.101
-161.245
-164.062
-166.886
-168.887
-171.681
-175.298
-179.831
-185.124
-189.482
-191.958
-192.453
-191.043
-188.569
-186.117
-184.07
-182.526
-181.608
-181.301
-181.601
-182.506
-183.765
-184.956
-185.842
-186.32
-186.349
-185.986
-185.242
-184.087
-182.552
-180.704
-178.604
-176.303
-173.823
-171.162
-168.342
-165.402
-162.392
-159.356
-156.316
-153.284
-150.262
-147.251
-144.255
-141.274
-138.301
-135.333
-132.367
-129.4
-126.436
-123.475
-120.515
-117.547
-114.562
-111.55
-108.507
-105.431
-102.321
-99.177
-96.002
-92.798
-89.57
-86.324
-83.06
-79.781
-76.489
-73.184
-69.871
-66.552
-63.232
-59.916
-56.61
-53.322
-50.059
-46.828
-43.639
-40.498
-37.413
-34.393
-31.447
-28.583
-25.809
-23.135
-20.569
-18.12
-15.798
-13.61
-11.566
-9.672
-7.936
-6.365
-4.964
-3.74
-2.696
-1.837
-1.167
-0.688
-0.403
-0.313
-0.419
-0.719
-1.213
-1.899
-2.773
-3.83
-5.065
-6.471
-8.043
-9.772
-11.648
-13.664
-15.808
-18.071
-20.441
-22.906
-25.456
-28.078
-30.76
-33.488
-36.252
-39.039
-41.836
-44.633
-47.417
-50.178
-52.905
-55.589
-58.219
-60.788
-63.287
-65.709
-68.048
-70.297
-72.452
-74.508
-76.462
-78.313
-80.059
-81.698
-83.233
-84.663
-85.991
-87.22
-88.352
-89.391
-90.341
-91.208
-91.995
-92.709
-93.355
-93.939
-94.465
-94.941
-95.371
-95.759
-96.112
-96.432
-96.724
-96.991
-97.235
-97.459
-97.663
-97.849
-98.016
-98.163
-98.29
-98.393
-98.469
-98.514
-98.522
-98.489
-98.407
-98.27
-98.07
-97.8
-97.451
-97.014
-96.483
-95.846
-95.096
-94.224
-93.219
-92.074
-90.779
-89.327
-87.709
-85.92
-83.953
-81.804
-79.469
-76.946
-74.23
-71.323
-68.223
-64.932
-61.452
-57.786
-53.938
-49.914
-45.722
-41.372
-36.873
-32.236
-27.475
-22.602
-17.632
-12.579
-7.458
-2.286
2.922
8.149
13.375
18.581
23.746
28.85
33.872
38.791
43.588
48.242
52.739
57.062
61.198
65.135
68.862
72.366
75.638
78.667
81.442
83.958
86.207
88.185
89.893
91.329
92.494
93.395
94.038
94.426
94.562
94.441
94.062
93.436
92.574
91.491
90.21
88.752
87.143
85.429
83.652
81.859
80.096
78.387
76.748
75.205
73.788
72.537
71.485
70.626
69.945
69.437
69.102
68.954
68.975
69.077
69.158
69.106
68.818
68.256
67.368
66.062
64.325
62.209
59.856
57.563
55.587
54.047
53.116
52.929
53.422
54.429
55.581
56.324
56.342
55.49
53.523
50.38
46.44
42.503
39.859
39.843
43.315
50.951
63.634
82.133
106.604
136.366
169.832
205.286
241.441
276.967
309.88
337.767
358.547
370.692
373.474
366.43
348.709
320.367
283.25
239.832
192.245
141.025
85.395
26.433
-31.235
-79.787
-111.982
-125.002
-121.264
-107.98
-92.29
-78.308
-67.615
-58.951
-50.948
-43.639
-37.537
-33.564
-32.053
-32.355
-33.374
-34.054
-33.897
-32.854
-31.099
-28.904
-26.499
-24.145
-22.198
-20.981
-20.63
-21.117
-22.311
-24.034
-26.128
-28.455
-30.864
-33.179
-35.278
-37.096
-38.604
-39.81
-40.725
-41.339
-41.654
-41.695
-41.493
-41.09
-40.524
-39.825
-39.029
-38.179
-37.321
-36.506
-35.769
-35.127
-34.592
-34.167
-33.85
-33.64
-33.53
-33.502
-33.538
-33.626
-33.751
-33.903
-34.068
-34.23
-34.369
-34.468
-34.513
-34.492
-34.394
-34.209
-33.93
-33.549
-33.063
-32.471
-31.771
-30.96
-30.035
-28.995
-27.839
-26.571
-25.191
-23.703
-22.112
-20.425
-18.65
-16.797
-14.876
-12.898
-10.875
-8.818
-6.741
-4.657
-2.58
-0.525
1.496
3.467
5.374
7.203
8.939
10.57
12.083
13.466
14.709
15.802
16.737
17.506
18.104
18.527
18.771
18.836
18.721
18.429
17.962
17.326
16.527
15.572
14.472
13.237
11.878
10.408
8.842
7.192
5.475
3.705
1.899
0.073
-1.756
-3.574
-5.362
-7.106
-8.789
-10.397
-11.916
-13.332
-14.634
-15.809
-16.85
-17.746
-18.491
-19.08
-19.509
-19.775
-19.878
-19.818
-19.597
-19.22
-18.692
-18.019
-17.208
-16.269
-15.212
-14.046
-12.784
-11.438
-10.02
-8.543
-7.021
-5.467
-3.895
-2.318
-0.748
0.8
2.315
3.784
5.196
6.542
7.812
8.996
10.089
11.085
11.979
12.767
13.449
14.023
14.491
14.856
15.121
15.291
15.372
15.373
15.303
15.171
14.989
14.768
14.52
14.258
13.996
13.748
13.525
13.344
13.216
13.156
13.177
13.293
13.517
13.861
14.337
14.956
15.73
16.666
17.773
19.058
20.526
22.182
24.029
26.068
28.3
30.723
33.336
36.134
39.114
42.267
45.586
49.058
52.675
56.421
60.286
64.252
68.306
72.43
76.609
80.827
85.067
89.309
93.537
97.73
101.869
105.933
109.901
113.752
117.466
121.024
124.409
127.604
130.596
133.371
135.918
138.227
140.289
142.093
143.629
144.889
145.867
146.56
146.968
147.093
146.935
146.5
145.798
144.839
143.63
142.173
140.46
138.492
136.282
133.843
131.194
128.353
125.338
122.181
118.931
115.637
112.346
109.089
105.872
102.712
99.638
96.682
93.894
91.298
88.878
86.635
84.581
82.721
81.076
79.608
78.202
76.756
75.165
73.348
71.304
68.985
66.289
63.214
59.809
56.228
52.812
49.799
47.283
45.447
44.416
44.129
44.51
45.228
45.626
45.275
43.857
40.974
36.632
31.315
25.739
21.058
18.738
19.963
25.945
38.025
56.886
82.402
113.802
149.607
187.903
226.688
263.526
295.498
319.931
334.721
338.334
329.675
308.807
277.055
236.236
189.065
136.698
78.095
14.587
-50.366
-109.82
-153.301
-175.317
-175.694
-158.91
-134.258
-108.189
-83.881
-62.556
-42.633
-23.711
-6.702
7.238
16.215
19.738
18.797
14.874
9.904
5.089
0.774
-2.644
-4.71
-5.282
-4.46
-2.799
-1.277
-0.456
-0.468
-1.397
-3.252
-5.999
-9.597
-13.813
-18.211
-22.528
-26.671
-30.608
-34.392
-38.048
-41.556
-44.941
-48.277
-51.618
-55
-58.447
-61.954
-65.537
-69.234
-73.069
-77.057
-81.2
-85.484
-89.889
-94.395
-98.976
-103.603
-108.251
-112.897
-117.519
-122.099
-126.614
-131.042
-135.358
-139.533
-143.542
-147.358
-150.961
-154.331
-157.452
-160.31
-162.895
-165.198
-167.209
-168.918
-170.316
-171.395
-172.146
-172.564
-172.647
-172.392
-171.798
-170.871
-169.615
-168.037
-166.146
-163.951
-161.464
-158.696
-155.661
-152.374
-148.851
-145.107
-141.162
-137.034
-132.742
-128.308
-123.752
-119.095
-114.359
-109.564
-104.733
-99.887
-95.046
-90.23
-85.46
-80.754
-76.13
-71.606
-67.199
-62.922
-58.791
-54.817
-51.012
-47.384
-43.941
-40.689
-37.632
-34.773
-32.113
-29.651
-27.386
-25.314
-23.429
-21.725
-20.195
-18.829
-17.616
-16.546
-15.606
-14.782
-14.06
-13.426
-12.864
-12.359
-11.895
-11.457
-11.028
-10.594
-10.139
-9.649
-9.111
-8.51
-7.834
-7.073
-6.215
-5.252
-4.175
-2.977
-1.653
-0.197
1.391
3.115
4.975
6.968
9.093
11.345
13.72
16.21
18.809
21.506
24.293
27.159
30.09
33.076
36.102
39.156
42.222
45.286
48.335
51.355
54.33
57.249
60.097
62.862
65.531
68.094
70.539
72.857
75.04
77.078
78.967
80.701
82.275
83.688
84.937
86.023
86.945
87.706
88.309
88.758
89.057
89.213
89.234
89.127
88.902
88.568
88.137
87.619
87.027
86.373
85.668
84.924
84.153
83.367
82.578
81.796
81.034
80.301
79.609
78.967
78.384
77.867
77.424
77.059
76.777
76.582
76.475
76.46
76.535
76.703
76.964
77.316
77.759
78.29
78.905
79.6
80.369
81.206
82.104
83.054
84.048
85.079
86.141
87.226
88.328
89.442
90.562
91.683
92.803
93.919
95.026
96.121
97.202
98.268
99.321
100.362
101.391
102.409
103.418
104.42
105.419
106.414
107.403
108.378
109.326
110.237
111.106
111.928
112.704
113.443
114.162
114.885
115.642
116.454
117.34
118.312
119.371
120.527
121.776
123.125
124.606
126.251
128.1
130.174
132.457
134.896
137.411
139.896
142.244
144.333
145.999
147.181
147.918
148.329
148.677
149.156
149.785
150.657
151.941
153.542
155.188
156.388
156.301
154.362
150.438
144.271
135.575
124.578
111.89
98.722
86.961
78.137
73.324
73.807
80.9
95.317
117.136
145.404
178.148
213.399
249.214
283.098
311.989
332.827
343.107
341.102
326.503
300.046
261.808
212.399
152.819
83.239
7.552
-67.559
-135.563
-188.342
-223.343
-244.212
-253.733
-256.402
-253.18
-241.01
-222.054
-199.169
-176.645
-160.154
-149.115
-142.02
-137.81
-134.344
-132.541
-132.762
-133.775
-135.408
-136.739
-136.992
-136.197
-133.968
-130.279
-125.766
-121.215
-117.176
-113.878
-111.306
-109.354
-108.101
-107.628
-107.741
-108.035
-108.188
-108.023
-107.507
-106.723
-105.673
-104.31
-102.646
-100.748
-98.697
-96.567
-94.392
-92.164
-89.895
-87.621
-85.391
-83.27
-81.296
-79.483
-77.84
-76.364
-75.054
-73.911
-72.924
-72.072
-71.336
-70.702
-70.159
-69.703
-69.325
-69.008
-68.737
-68.491
-68.255
-68.019
-67.774
-67.51
-67.223
-66.906
-66.558
-66.179
-65.769
-65.325
-64.846
-64.329
-63.775
-63.183
-62.557
-61.897
-61.207
-60.493
-59.761
-59.016
-58.266
-57.518
-56.779
-56.056
-55.356
-54.689
-54.06
-53.479
-52.952
-52.487
-52.093
-51.777
-51.546
-51.407
-51.366
-51.43
-51.604
-51.893
-52.301
-52.832
-53.489
-54.273
-55.186
-56.229
-57.401
-58.7
-60.124
-61.671
-63.336
-65.114
-66.998
-68.982
-71.059
-73.22
-75.456
-77.758
-80.116
-82.521
-84.961
-87.427
-89.907
-92.391
-94.867
-97.325
-99.752
-102.139
-104.474
-106.747
-108.948
-111.066
-113.092
-115.018
-116.836
-118.537
-120.115
-121.565
-122.88
-124.058
-125.094
-125.987
-126.735
-127.338
-127.798
-128.116
-128.295
-128.339
-128.252
-128.04
-127.709
-127.264
-126.715
-126.068
-125.332
-124.516
-123.63
-122.683
-121.685
-120.648
-119.581
-118.495
-117.4
-116.307
-115.227
-114.167
-113.139
-112.15
-111.209
-110.324
-109.501
-108.746
-108.063
-107.456
-106.927
-106.478
-106.106
-105.813
-105.594
-105.446
-105.365
-105.346
-105.383
-105.468
-105.593
-105.75
-105.93
-106.121
-106.314
-106.496
-106.655
-106.779
-106.855
-106.869
-106.808
-106.66
-106.41
-106.046
-105.556
-104.927
-104.146
-103.202
-102.084
-100.783
-99.292
-97.604
-95.714
-93.619
-91.317
-88.81
-86.097
-83.182
-80.069
-76.76
-73.263
-69.584
-65.732
-61.717
-57.548
-53.24
-48.805
-44.259
-39.619
-34.899
-30.118
-25.294
-20.445
-15.59
-10.748
-5.937
-1.178
3.511
8.112
12.607
16.982
21.219
25.305
29.226
32.969
36.523
39.878
43.025
45.955
48.658
51.125
53.351
55.33
57.051
58.498
59.646
60.481
60.997
61.194
61.083
60.676
59.984
59.032
57.858
56.491
54.958
53.272
51.428
49.443
47.351
45.204
43.089
41.059
39.133
37.313
35.575
33.875
32.177
30.379
28.304
25.879
23.128
20.167
17.253
14.553
12.082
9.923
8.204
6.831
5.539
3.825
0.892
-3.777
-10.319
-18.939
-29.822
-42.732
-57.116
-71.878
-85.339
-96.192
-103.543
-106.253
-103.145
-93.526
-77.168
-54.773
-27.947
1.87
33.185
63.741
90.896
112.064
124.867
127.755
119.917
100.556
70.074
30.671
-15.138
-64.839
-117.278
-172.684
-229.339
-282.495
-325.461
-352.015
-359.041
-348.99
-327.435
-299.561
-271.379
-245.859
-224.002
-207.605
-195.143
-185.711
-179.308
-174.705
-173.108
-174.986
-179.496
-186.476
-194.296
-201.65
-208.243
-213.327
-216.706
-218.679
-219.368
-219.189
-218.781
-218.391
-218.148
-218.289
-218.863
-219.851
-221.229
-222.787
-224.23
-225.437
-226.362
-226.981
-227.347
-227.484
-227.396
-227.148
-226.822
-226.478
-226.162
-225.898
-225.676
-225.493
-225.356
-225.264
-225.222
-225.225
-225.261
-225.314
-225.378
-225.454
-225.541
-225.638
-225.742
-225.848
-225.95
-226.044
-226.127
-226.195
-226.244
-226.268
-226.261
-226.22
-226.141
-226.024
-225.868
-225.667
-225.415
-225.106
-224.734
-224.291
-223.772
-223.169
-222.475
-221.684
-220.792
-219.795
-218.688
-217.468
-216.129
-214.667
-213.076
-211.354
-209.494
-207.494
-205.348
-203.052
-200.606
-198.005
-195.25
-192.339
-189.271
-186.048
-182.67
-179.139
-175.458
-171.629
-167.656
-163.544
-159.298
-154.924
-150.43
-145.822
-141.109
-136.298
-131.398
-126.418
-121.366
-116.251
-111.083
-105.868
-100.618
-95.341
-90.045
-84.74
-79.435
-74.138
-68.857
-63.601
-58.377
-53.193
-48.054
-42.967
-37.938
-32.97
-28.07
-23.241
-18.485
-13.805
-9.204
-4.681
-0.238
4.125
8.411
12.62
16.755
20.818
24.811
28.738
32.603
36.408
40.158
43.857
47.507
51.112
54.678
58.206
61.701
65.166
68.604
72.019
75.412
78.787
82.145
85.488
88.819
92.137
95.444
98.74
102.025
105.3
108.563
111.815
115.053
118.277
121.484
124.672
127.839
130.982
134.1
137.189
140.246
143.271
146.26
149.213
152.127
155.002
157.835
160.626
163.375
166.081
168.743
171.362
173.939
176.473
178.967
181.421
183.839
186.221
188.57
190.889
193.181
195.448
197.692
199.916
202.123
204.316
206.497
208.669
210.836
213
215.164
217.33
219.501
221.677
223.86
226.049
228.245
230.445
232.65
234.857
237.065
239.272
241.475
243.671
245.858
248.03
250.183
252.31
254.404
256.457
258.459
260.404
262.283
264.088
265.812
267.449
268.995
270.446
271.798
273.046
274.183
275.203
276.1
276.867
277.499
277.993
278.347
278.556
278.617
278.535
278.31
277.942
277.428
276.755
275.913
274.904
273.735
272.415
270.958
269.375
267.685
265.923
264.129
262.345
260.605
258.924
257.306
255.76
254.31
252.985
251.807
250.764
249.819
248.949
248.138
247.371
246.634
245.84
244.865
243.596
241.919
239.765
237.131
233.988
230.258
225.954
221.151
216.015
210.888
206.043
201.539
197.453
193.87
190.731
188.066
185.859
183.684
181.182
178.316
175.037
171.591
168.707
166.845
166.349
168.073
172.865
181.421
194.617
212.703
234.947
260.734
289.532
320.196
351.244
380.691
405.875
424.577
435.423
437.041
428.153
407.984
377.059
337.79
292.673
243.819
192.466
138.377
84.738
37.598
1.972
-16.926
-19.053
-10.101
5.017
20.944
34.379
46.007
56.077
64.817
72.382
77.749
80.632
81.589
81.504
81.596
82.512
84.288
86.781
89.697
92.777
95.788
98.353
100.067
100.724
100.307
98.923
96.758
93.957
90.63
86.914
82.975
78.973
75.031
71.213
67.542
64.037
60.726
57.643
54.813
52.232
49.878
47.73
45.775
44.006
42.415
40.987
39.696
38.515
37.429
36.44
35.554
34.783
34.139
33.631
33.276
33.098
33.123
33.369
33.851
34.578
35.561
36.812
38.342
40.159
42.264
44.653
47.323
50.264
53.468
56.92
60.602
64.494
68.576
72.827
77.226
81.751
86.378
91.081
95.836
100.617
105.398
110.151
114.85
119.466
123.973
128.346
132.559
136.587
140.409
144.001
147.343
150.418
153.207
155.697
157.872
159.723
161.24
162.417
163.25
163.737
163.878
163.675
163.134
162.259
161.061
159.548
157.733
155.628
153.249
150.612
147.733
144.63
141.322
137.827
134.167
130.36
126.428
122.389
118.264
114.072
109.832
105.563
101.282
97.006
92.751
88.53
84.357
80.245
76.204
72.243
68.37
64.591
60.912
57.336
53.865
50.5
47.242
44.089
41.038
38.087
35.232
32.467
29.787
27.187
24.661
22.203
19.806
17.464
15.172
12.922
10.71
8.529
6.376
4.245
2.133
0.035
-2.051
-4.126
-6.194
-8.253
-10.304
-12.347
-14.379
-16.399
-18.403
-20.387
-22.348
-24.28
-26.179
-28.037
-29.849
-31.607
-33.305
-34.935
-36.49
-37.963
-39.346
-40.634
-41.818
-42.893
-43.854
-44.694
-45.408
-45.993
-46.443
-46.756
-46.928
-46.958
-46.844
-46.587
-46.186
-45.642
-44.958
-44.137
-43.182
-42.096
-40.885
-39.554
-38.109
-36.557
-34.905
-33.162
-31.338
-29.443
-27.487
-25.482
-23.438
-21.368
-19.283
-17.195
-15.118
-13.062
-11.04
-9.067
-7.155
-5.318
-3.569
-1.922
-0.389
1.016
2.282
3.397
4.352
5.136
5.738
6.148
6.358
6.356
6.134
5.682
4.991
4.054
2.866
1.423
-0.276
-2.231
-4.443
-6.907
-9.618
-12.57
-15.754
-19.165
-22.795
-26.633
-30.666
-34.88
-39.261
-43.799
-48.479
-53.285
-58.197
-63.199
-68.277
-73.429
-78.649
-83.924
-89.24
-94.578
-99.917
-105.239
-110.515
-115.696
-120.73
-125.559
-130.126
-134.409
-138.38
-142.01
-145.27
-148.111
-150.497
-152.419
-153.856
-154.786
-155.211
-155.135
-154.611
-153.764
-152.706
-151.582
-150.578
-149.766
-149.148
-148.656
-148.094
-147.317
-146.259
-144.772
-142.66
-139.903
-136.681
-133.498
-131.145
-130.171
-130.815
-133.184
-137.374
-143.404
-150.842
-158.575
-164.861
-167.994
-166.791
-160.459
-148.198
-129.109
-102.709
-69.357
-30.503
12.02
56.122
99.792
141.584
179.113
211.079
236.554
252.209
255.958
245.491
219.154
180.592
133.088
77.965
16.636
-50.719
-120.286
-182.414
-227.658
-251.122
-254.478
-245.891
-234.064
-223.549
-215.003
-206.741
-197.805
-188.932
-181.611
-177.372
-176.476
-178.33
-182.153
-186.735
-191.007
-194.449
-196.821
-198.205
-198.96
-199.375
-199.668
-200.163
-201.18
-202.862
-205.233
-208.189
-211.5
-214.966
-218.424
-221.692
-224.644
-227.209
-229.33
-230.994
-232.22
-233.014
-233.401
-233.416
-233.08
-232.425
-231.492
-230.325
-228.981
-227.526
-226.025
-224.544
-223.134
-221.83
-220.663
-219.655
-218.821
-218.174
-217.717
-217.446
-217.366
-217.479
-217.784
-218.282
-218.964
-219.821
-220.84
-222.007
-223.306
-224.724
-226.245
-227.855
-229.538
-231.28
-233.064
-234.877
-236.701
-238.515
-240.299
-242.03
-243.686
-245.244
-246.684
-247.983
-249.121
-250.078
-250.837
-251.383
-251.699
-251.771
-251.588
-251.138
-250.412
-249.401
-248.1
-246.505
-244.613
-242.423
-239.938
-237.16
-234.095
-230.75
-227.134
-223.257
-219.131
-214.769
-210.186
-205.399
-200.422
-195.276
-189.979
-184.551
-179.011
-173.382
-167.682
-161.935
-156.159
-150.376
-144.604
-138.862
-133.17
-127.543
-121.998
-116.552
-111.217
-106.007
-100.935
-96.011
-91.245
-86.646
-82.222
-77.978
-73.919
-70.05
-66.373
-62.891
-59.603
-56.509
-53.609
-50.9
-48.379
-46.043
-43.887
-41.906
-40.094
-38.445
-36.953
-35.61
-34.41
-33.344
-32.405
-31.585
-30.878
-30.274
-29.767
-29.349
-29.013
-28.751
-28.557
-28.423
-28.343
-28.309
-28.315
-28.354
-28.419
-28.504
-28.602
-28.706
-28.808
-28.902
-28.98
-29.035
-29.06
-29.047
-28.989
-28.878
-28.707
-28.467
-28.152
-27.753
-27.262
-26.673
-25.977
-25.167
-24.236
-23.177
-21.982
-20.645
-19.159
-17.518
-15.715
-13.745
-11.602
-9.282
-6.78
-4.094
-1.221
1.84
5.091
8.53
12.156
15.967
19.958
24.126
28.465
32.967
37.625
42.428
47.368
52.434
57.612
62.889
68.253
73.689
79.181
84.714
90.273
95.841
101.4
106.933
112.422
117.848
123.191
128.432
133.553
138.532
143.352
147.994
152.44
156.67
160.67
164.424
167.916
171.132
174.057
176.68
178.99
180.976
182.629
183.941
184.907
185.52
185.781
185.691
185.249
184.459
183.321
181.843
180.032
177.897
175.447
172.692
169.646
166.325
162.752
158.947
154.932
150.727
146.349
141.82
137.159
132.386
127.516
122.561
117.525
112.425
107.282
102.125
96.974
91.85
86.77
81.759
76.849
72.067
67.435
62.969
58.687
54.62
50.8
47.274
44.096
41.304
38.926
36.972
35.425
34.262
33.447
32.908
32.583
32.394
32.226
32.064
31.946
31.957
32.318
33.202
34.631
36.726
39.658
43.307
47.434
51.532
54.627
55.992
55.213
51.752
45.31
36.204
25.101
13.345
3.089
-3.846
-5.82
-1.027
11.697
32.664
61.473
96.652
135.87
176.833
216.747
252.303
280.705
299.535
307.068
302.522
285.311
255.846
216.448
169.873
118.843
64.344
5.084
-57.908
-120.926
-176.517
-215.144
-232.65
-228.701
-208.231
-179.891
-148.703
-119.909
-95.912
-76.047
-61.7
-51.545
-44.781
-41.428
-39.272
-38.03
-37.196
-35.864
-34.463
-32.172
-27.982
-21.872
-13.927
-4.924
3.874
11.91
19.057
25.174
30.211
34.131
36.932
38.853
40.374
41.837
43.385
45.098
46.958
48.959
51.153
53.544
56.071
58.673
61.305
63.941
66.596
69.276
71.959
74.61
77.184
79.633
81.937
84.09
86.09
87.944
89.656
91.232
92.69
94.059
95.364
96.625
97.854
99.064
100.272
101.502
102.778
104.123
105.551
107.074
108.703
110.449
112.317
114.312
116.434
118.681
121.05
123.541
126.152
128.877
131.713
134.649
137.678
140.788
143.969
147.205
150.481
153.781
157.087
160.38
163.64
166.849
169.984
173.026
175.952
178.742
181.373
183.823
186.073
188.1
189.885
191.41
192.656
193.606
194.245
194.558
194.534
194.161
193.43
192.334
190.866
189.023
186.804
184.207
181.236
177.895
174.189
170.126
165.719
160.978
155.919
150.558
144.913
139.005
132.854
126.485
119.921
113.187
106.312
99.321
92.244
85.108
77.944
70.78
63.644
56.566
49.573
42.693
35.953
29.377
22.992
16.82
10.883
5.203
-0.203
-5.316
-10.122
-14.605
-18.755
-22.562
-26.018
-29.119
-31.859
-34.24
-36.262
-37.928
-39.244
-40.219
-40.861
-41.183
-41.199
-40.923
-40.371
-39.563
-38.516
-37.251
-35.787
-34.146
-32.35
-30.421
-28.379
-26.248
-24.049
-21.803
-19.531
-17.254
-14.99
-12.76
-10.579
-8.466
-6.435
-4.5
-2.675
-0.971
0.603
2.039
3.33
4.473
5.465
6.305
6.996
7.538
7.938
8.199
8.33
8.336
8.227
8.013
7.702
7.305
6.833
6.298
5.71
5.081
4.421
3.743
3.057
2.373
1.7
1.049
0.426
-0.159
-0.7
-1.189
-1.621
-1.992
-2.297
-2.536
-2.707
-2.813
-2.855
-2.839
-2.771
-2.656
-2.504
-2.322
-2.12
-1.907
-1.692
-1.487
-1.302
-1.149
-1.038
-0.982
-0.991
-1.077
-1.251
-1.523
-1.902
-2.396
-3.011
-3.753
-4.625
-5.634
-6.781
-8.067
-9.493
-11.054
-12.746
-14.567
-16.508
-18.56
-20.712
-22.952
-25.264
-27.639
-30.065
-32.529
-35.017
-37.513
-40.004
-42.486
-44.96
-47.423
-49.865
-52.269
-54.61
-56.867
-59.017
-61.031
-62.873
-64.506
-65.896
-67.021
-67.876
-68.452
-68.732
-68.678
-68.224
-67.311
-65.915
-64.046
-61.744
-59.07
-56.088
-52.871
-49.558
-46.311
-43.193
-40.183
-37.138
-33.796
-29.993
-25.697
-20.838
-15.393
-9.573
-3.711
1.597
5.484
7.377
6.943
3.849
-1.843
-9.564
-18.426
-26.98
-33.463
-36.528
-34.826
-26.892
-11.997
9.937
38.263
71.357
107.428
144.797
181.13
213.67
239.96
257.648
265.186
261.921
247.578
222.852
189.328
148.615
101.033
46.518
-13.54
-75.048
-129.648
-168.852
-188.773
-190.787
-181.622
-168.668
-156
-144.705
-133.674
-122.285
-111.181
-101.48
-94.482
-90.432
-88.772
-88.748
-89.217
-89.196
-88.245
-86.213
-83.214
-79.576
-75.572
-71.437
-67.488
-64.037
-61.226
-59.06
-57.45
-56.202
-55.149
-54.176
-53.139
-51.932
-50.497
-48.787
-46.796
-44.551
-42.065
-39.357
-36.459
-33.393
-30.189
-26.894
-23.548
-20.2
-16.908
-13.722
-10.7
-7.884
-5.3
-2.971
-0.913
0.869
2.37
3.591
4.541
5.222
5.639
5.8
5.708
5.376
4.815
4.041
3.071
1.921
0.603
-0.868
-2.479
-4.22
-6.079
-8.047
-10.114
-12.272
-14.509
-16.812
-19.17
-21.57
-24.003
-26.457
-28.922
-31.389
-33.849
-36.297
-38.725
-41.129
-43.503
-45.841
-48.138
-50.392
-52.597
-54.75
-56.849
-58.891
-60.875
-62.799
-64.663
-66.467
-68.211
-69.894
-71.518
-73.082
-74.588
-76.035
-77.424
-78.755
-80.03
-81.248
-82.411
-83.519
-84.573
-85.572
-86.517
-87.409
-88.246
-89.029
-89.758
-90.43
-91.048
-91.609
-92.114
-92.563
-92.956
-93.294
-93.577
-93.806
-93.982
-94.105
-94.177
-94.2
-94.175
-94.104
-93.99
-93.835
-93.644
-93.418
-93.162
-92.881
-92.577
-92.255
-91.92
-91.577
-91.229
-90.882
-90.541
-90.211
-89.896
-89.603
-89.334
-89.096
-88.892
-88.728
-88.606
-88.531
-88.506
-88.534
-88.619
-88.763
-88.967
-89.234
-89.564
-89.959
-90.419
-90.942
-91.527
-92.174
-92.878
-93.639
-94.451
-95.312
-96.216
-97.16
-98.137
-99.142
-100.169
-101.211
-102.262
-103.314
-104.36
-105.392
-106.403
-107.384
-108.327
-109.226
-110.07
-110.853
-111.564
-112.196
-112.74
-113.188
-113.53
-113.76
-113.869
-113.85
-113.697
-113.404
-112.967
-112.379
-111.638
-110.739
-109.68
-108.458
-107.072
-105.522
-103.806
-101.926
-99.883
-97.681
-95.323
-92.814
-90.158
-87.36
-84.428
-81.367
-78.185
-74.891
-71.493
-68.001
-64.426
-60.782
-57.081
-53.336
-49.562
-45.772
-41.982
-38.205
-34.456
-30.747
-27.093
-23.507
-20.003
-16.595
-13.297
-10.122
-7.085
-4.2
-1.481
1.063
3.421
5.586
7.549
9.308
10.857
12.196
13.325
14.239
14.937
15.415
15.673
15.716
15.548
15.175
14.605
13.847
12.917
11.831
10.604
9.242
7.746
6.113
4.347
2.467
0.487
-1.577
-3.704
-5.867
-8.024
-10.117
-12.102
-13.952
-15.656
-17.211
-18.604
-19.808
-20.793
-21.53
-22.009
-22.231
-22.187
-21.858
-21.245
-20.364
-19.29
-18.144
-17.026
-16.004
-15.122
-14.385
-13.827
-13.524
-13.472
-13.578
-13.659
-13.426
-12.659
-11.272
-9.196
-6.316
-2.629
1.723
6.36
10.555
13.607
15.144
15.115
13.682
11.355
8.982
7.683
9.153
15.225
27.273
46.05
71.661
103.451
140.107
179.869
220.097
257.631
289.427
312.729
325.497
326.479
315.17
291.938
258.336
216.805
170.4
122.662
76.915
36.334
3.759
-19.102
-31.654
-34.145
-27.759
-14.419
3.748
24.119
43.953
61.442
75.525
85.678
92.036
95.059
95.353
94.029
92.392
91.216
90.878
91.434
92.639
94.271
96.143
97.916
99.204
99.812
99.708
99.014
97.972
96.781
95.587
94.503
93.613
92.97
92.6
92.522
92.719
93.167
93.85
94.757
95.884
97.225
98.755
100.424
102.174
103.95
105.693
107.374
108.971
110.464
111.84
113.087
114.197
115.17
116.008
116.703
117.241
117.611
117.804
117.82
117.66
117.328
116.826
116.157
115.323
114.327
113.171
111.857
110.384
108.752
106.962
105.019
102.928
100.697
98.336
95.855
93.264
90.574
87.798
84.948
82.033
79.067
76.06
73.024
69.97
66.912
63.86
60.827
57.826
54.868
51.965
49.127
46.365
43.687
41.102
38.617
36.239
33.972
31.821
29.79
27.883
26.101
24.446
22.916
21.512
20.232
19.072
18.029
17.099
16.277
15.556
14.932
14.397
13.946
13.573
13.269
13.027
12.841
12.702
12.603
12.536
12.493
12.467
12.449
12.434
12.413
12.381
12.333
12.261
12.161
12.03
11.861
11.652
11.399
11.1
10.753
10.355
9.905
9.403
8.848
8.24
7.579
6.865
6.099
5.281
4.413
3.494
2.527
1.512
0.45
-0.657
-1.808
-3.002
-4.236
-5.511
-6.825
-8.177
-9.566
-10.992
-12.453
-13.951
-15.483
-17.051
-18.654
-20.291
-21.964
-23.671
-25.413
-27.19
-29.001
-30.846
-32.724
-34.635
-36.576
-38.547
-40.544
-42.566
-44.608
-46.668
-48.74
-50.821
-52.905
-54.986
-57.058
-59.114
-61.146
-63.146
-65.106
-67.016
-68.865
-70.644
-72.34
-73.944
-75.443
-76.825
-78.08
-79.194
-80.156
-80.955
-81.579
-82.016
-82.257
-82.292
-82.112
-81.708
-81.074
-80.204
-79.094
-77.739
-76.139
-74.292
-72.198
-69.86
-67.28
-64.464
-61.416
-58.146
-54.663
-50.978
-47.106
-43.062
-38.863
-34.528
-30.078
-25.535
-20.921
-16.26
-11.578
-6.899
-2.249
2.344
6.854
11.252
15.512
19.607
23.509
27.192
30.633
33.809
36.697
39.277
41.531
43.441
44.991
46.164
46.948
47.329
47.299
46.852
45.985
44.7
43.003
40.903
38.414
35.55
32.327
28.762
24.871
20.673
16.185
11.427
6.419
1.184
-4.256
-9.88
-15.667
-21.594
-27.638
-33.778
-39.989
-46.241
-52.502
-58.736
-64.904
-70.963
-76.862
-82.547
-87.967
-93.064
-97.783
-102.063
-105.829
-109.028
-111.626
-113.601
-114.98
-115.803
-116.1
-115.937
-115.408
-114.53
-113.287
-111.613
-109.321
-106.298
-102.518
-97.894
-92.427
-86.359
-80.06
-74.116
-69.31
-66.177
-65.077
-66.435
-70.337
-76.353
-83.699
-91.072
-96.816
-99.504
-97.768
-90.101
-75.509
-53.802
-25.405
8.546
46.272
85.655
124.199
158.981
187.206
206.81
216.251
214.153
200.644
177.636
147.081
111.551
71.896
26.042
-25.135
-77.599
-124.033
-153.507
-159.664
-142.733
-107.535
-63.902
-21.258
15.576
43.741
63.214
76.876
85.264
88.717
88.231
82.653
72.512
59.723
45.418
31.654
20.136
11.342
5.593
2.684
1.908
2.491
3.626
4.74
5.455
5.554
4.987
3.734
1.891
-0.287
-2.505
-4.576
-6.418
-8.034
-9.483
-10.78
-11.938
-13.012
-14.079
-15.215
-16.457
-17.798
-19.211
-20.674
-22.178
-23.718
-25.285
-26.861
-28.43
-29.984
-31.523
-33.055
-34.586
-36.12
-37.653
-39.181
-40.704
-42.221
-43.728
-45.222
-46.697
-48.144
-49.559
-50.939
-52.281
-53.579
-54.829
-56.023
-57.155
-58.218
-59.204
-60.108
-60.923
-61.643
-62.265
-62.786
-63.205
-63.521
-63.734
-63.845
-63.855
-63.766
-63.578
-63.293
-62.913
-62.443
-61.884
-61.241
-60.519
-59.723
-58.859
-57.936
-56.96
-55.939
-54.881
-53.793
-52.684
-51.563
-50.436
-49.312
-48.198
-47.101
-46.03
-44.99
-43.989
-43.03
-42.12
-41.261
-40.458
-39.713
-39.025
-38.394
-37.818
-37.298
-36.834
-36.424
-36.059
-35.742
-35.477
-35.27
-35.126
-35.04
-34.99
-34.969
-34.989
-35.03
-35.05
-35.014
-34.885
-34.656
-34.368
-34.024
-33.568
-33.053
-32.652
-32.388
-32.206
-32.127
-31.939
-32.048
-33.557
-36.132
-38.794
-39.781
-35.922
-27.662
-18.119
-10.49
-9.3
-14.493
-21.862
-28.178
-29.85
-26.525
-21.371
-16.248
-12.526
-10.504
-8.882
-7.136
-5.298
-3.336
-1.454
0.312
2.133
4.05
6.03
8.075
10.189
12.362
14.581
16.826
19.065
21.285
23.498
25.703
27.896
30.074
32.233
34.37
36.487
38.581
40.648
42.685
44.688
46.657
48.589
50.482
52.334
54.143
55.909
57.628
59.3
60.925
62.501
64.03
65.51
66.945
68.335
69.682
70.987
72.254
73.485
74.681
75.846
76.981
78.092
79.179
80.248
81.301
82.342
83.374
84.402
85.428
86.454
87.482
88.514
89.552
90.595
91.646
92.704
93.769
94.843
95.924
97.012
98.105
99.2
100.291
101.374
102.439
103.481
104.49
105.458
106.375
107.236
108.032
108.758
109.406
109.97
110.44
110.809
111.067
111.205
111.215
111.088
110.818
110.399
109.828
109.101
108.218
107.173
105.963
104.579
103.008
101.24
99.273
97.105
94.738
92.18
89.442
86.542
83.511
80.381
77.183
73.948
70.7
67.462
64.257
61.121
58.092
55.197
52.446
49.843
47.394
45.117
43.019
41.075
39.217
37.353
35.403
33.303
30.981
28.334
25.309
21.913
18.248
14.558
11.099
8.058
5.628
4.04
3.369
3.472
4.004
4.3
3.692
1.819
-1.622
-6.961
-14.137
-22.558
-31.116
-38.071
-41.653
-40.629
-33.752
-19.665
2.446
32.694
70.24
113.186
159.418
207.058
253.662
296.279
332.126
358.594
373.938
377.383
368.267
346.773
314.71
274.407
228.063
176.61
119.631
58.513
-1.957
-53.778
-88.917
-103.609
-99.551
-83.129
-60.953
-37.081
-13.031
11.923
37.704
62.747
84.818
101.244
110.606
112.982
109.207
100.828
89.577
76.916
64.39
53.374
44.612
38.472
34.947
33.565
33.707
34.711
35.759
36.248
35.952
34.785
32.806
30.203
27.135
23.83
20.613
17.669
15.053
12.768
10.748
8.943
7.35
5.928
4.612
3.36
2.13
0.898
-0.328
-1.545
-2.762
-3.982
-5.211
-6.449
-7.681
-8.893
-10.084
-11.254
-12.411
-13.561
-14.705
-15.844
-16.979
-18.104
-19.218
-20.315
-21.391
-22.442
-23.464
-24.454
-25.414
-26.347
-27.256
-28.144
-29.01
-29.849
-30.656
-31.423
-32.148
-32.828
-33.467
-34.067
-34.628
-35.153
-35.643
-36.102
-36.531
-36.926
-37.278
-37.575
-37.811
-37.981
-38.091
-38.149
-38.155
-38.095
-37.942
-37.664
-37.245
-36.694
-36.025
-35.247
-34.352
-33.32
-32.166
-30.961
-29.723
-28.379
-26.753
-24.651
-22.028
-19.045
-15.907
-12.682
-9.46
-6.471
-4.176
-3.139
-3.589
-5.232
-7.512
-10.069
-12.647
-14.92
-16.316
-16.058
-13.762
-9.737
-4.733
0.663
6.092
11.268
15.788
19.024
20.587
20.634
19.713
18.304
16.662
14.9
13.111
11.536
10.377
9.598
8.976
8.293
7.443
6.422
5.287
4.037
2.64
1.096
-0.557
-2.273
-4.021
-5.804
-7.648
-9.57
-11.573
-13.645
-15.771
-17.937
-20.136
-22.36
-24.604
-26.858
-29.113
-31.36
-33.589
-35.793
-37.964
-40.093
-42.169
-44.182
-46.123
-47.987
-49.773
-51.479
-53.101
-54.636
-56.079
-57.428
-58.68
-59.831
-60.879
-61.82
-62.651
-63.371
-63.978
-64.47
-64.847
-65.106
-65.247
-65.269
-65.172
-64.955
-64.619
-64.163
-63.588
-62.894
-62.081
-61.15
-60.102
-58.937
-57.657
-56.265
-54.762
-53.151
-51.434
-49.614
-47.695
-45.68
-43.572
-41.377
-39.099
-36.745
-34.322
-31.839
-29.304
-26.726
-24.115
-21.482
-18.836
-16.187
-13.546
-10.921
-8.324
-5.764
-3.254
-0.805
1.57
3.86
6.051
8.13
10.084
11.902
13.576
15.096
16.456
17.65
18.672
19.518
20.185
20.669
20.964
21.068
20.98
20.701
20.236
19.59
18.769
17.778
16.633
15.341
13.912
12.347
10.638
8.789
6.807
4.702
2.489
0.183
-2.202
-4.636
-7.07
-9.463
-11.769
-13.963
-16.039
-17.978
-19.754
-21.336
-22.679
-23.769
-24.615
-25.208
-25.523
-25.54
-25.247
-24.707
-24.044
-23.368
-22.786
-22.355
-22.117
-22.194
-22.635
-23.392
-24.357
-25.25
-25.797
-25.927
-25.496
-24.273
-22.328
-19.808
-17.016
-14.73
-13.469
-13.452
-15.152
-18.878
-24.316
-30.856
-37.311
-41.841
-43.054
-39.614
-29.77
-12.161
13.317
45.469
82.453
122.472
165.761
213.141
262.68
309.574
345.754
363.124
358.209
332.52
291.942
243.434
191.648
138.402
83.467
27.211
-28.014
-78.239
-119.1
-148.044
-164.537
-169.076
-162.778
-146.995
-123.753
-96.207
-67.848
-41.561
-19.176
-1.743
9.898
15.317
14.89
9.877
2.253
-6.048
-13.894
-20.617
-25.562
-28.357
-28.97
-27.735
-25.562
-23.467
-21.961
-21.278
-21.578
-22.843
-25.019
-27.994
-31.405
-34.818
-37.998
-40.838
-43.303
-45.447
-47.281
-48.791
-50.026
-51.054
-51.928
-52.68
-53.329
-53.871
-54.331
-54.748
-55.153
-55.569
-56.007
-56.463
-56.931
-57.406
-57.879
-58.339
-58.782
-59.202
-59.594
-59.957
-60.289
-60.584
-60.835
-61.031
-61.161
-61.216
-61.191
-61.082
-60.886
-60.605
-60.237
-59.786
-59.251
-58.632
-57.926
-57.131
-56.245
-55.266
-54.193
-53.026
-51.765
-50.411
-48.967
-47.436
-45.82
-44.123
-42.346
-40.494
-38.57
-36.577
-34.521
-32.405
-30.236
-28.018
-25.76
-23.467
-21.147
-18.809
-16.46
-14.108
-11.763
-9.435
-7.131
-4.863
-2.64
-0.472
1.631
3.657
5.597
7.441
9.177
10.797
12.291
13.649
14.863
15.926
16.83
17.567
18.131
18.517
18.719
18.734
18.558
18.189
17.624
16.864
15.909
14.76
13.42
11.892
10.18
8.29
6.227
4
1.615
-0.917
-3.589
-6.389
-9.307
-12.331
-15.449
-18.65
-21.921
-25.248
-28.619
-32.022
-35.444
-38.871
-42.292
-45.694
-49.067
-52.398
-55.679
-58.898
-62.048
-65.121
-68.109
-71.007
-73.809
-76.511
-79.112
-81.609
-84.001
-86.289
-88.475
-90.561
-92.551
-94.449
-96.26
-97.991
-99.648
-101.238
-102.769
-104.25
-105.689
-107.094
-108.475
-109.841
-111.2
-112.559
-113.927
-115.31
-116.716
-118.15
-119.618
-121.123
-122.668
-124.257
-125.891
-127.57
-129.293
-131.058
-132.86
-134.695
-136.557
-138.439
-140.332
-142.226
-144.112
-145.978
-147.814
-149.606
-151.343
-153.01
-154.594
-156.081
-157.456
-158.705
-159.814
-160.769
-161.557
-162.167
-162.59
-162.814
-162.832
-162.636
-162.22
-161.578
-160.707
-159.604
-158.267
-156.697
-154.895
-152.867
-150.618
-148.156
-145.491
-142.635
-139.602
-136.406
-133.063
-129.587
-125.994
-122.298
-118.514
-114.658
-110.746
-106.795
-102.823
-98.851
-94.899
-90.987
-87.131
-83.345
-79.64
-76.028
-72.516
-69.111
-65.815
-62.632
-59.574
-56.657
-53.9
-51.315
-48.903
-46.659
-44.574
-42.632
-40.811
-39.082
-37.411
-35.768
-34.137
-32.516
-30.915
-29.333
-27.757
-26.155
-24.477
-22.698
-20.801
-18.775
-16.614
-14.325
-11.929
-9.49
-7.097
-4.826
-2.736
-0.846
0.874
2.426
3.778
4.935
5.929
6.892
8.071
9.665
11.776
14.493
17.911
21.998
26.628
31.449
35.78
38.98
40.575
40.358
38.459
35.428
32.034
29.324
28.836
32.129
40.621
55.265
76.138
102.6
133.655
167.796
202.771
236.057
264.724
285.877
297.569
298.239
287.191
265.302
233.908
194.836
148.792
95.07
35.228
-27.327
-85.163
-128.365
-153.19
-159.209
-150.254
-134.849
-115.99
-96.483
-80.388
-68.033
-62.566
-64.886
-70.959
-78.155
-82.955
-83.565
-81.877
-79.167
-76.51
-74.377
-71.866
-68.707
-65.185
-61.658
-58.736
-56.643
-55.265
-54.493
-54.181
-54.215
-54.493
-54.898
-55.315
-55.647
-55.845
-55.88
-55.733
-55.401
-54.886
-54.185
-53.308
-52.281
-51.133
-49.905
-48.639
-47.362
-46.111
-44.922
-43.832
-42.889
-42.125
-41.558
-41.2
-41.052
-41.113
-41.382
-41.847
-42.488
-43.282
-44.207
-45.239
-46.36
-47.547
-48.771
-50.002
-51.21
-52.365
-53.443
-54.417
-55.263
-55.956
-56.475
-56.799
-56.912
-56.796
-56.436
-55.813
-54.914
-53.725
-52.238
-50.443
-48.334
-45.908
-43.163
-40.101
-36.727
-33.047
-29.069
-24.803
-20.262
-15.459
-10.412
-5.138
0.341
6.007
11.833
17.797
23.873
30.034
36.254
42.506
48.762
54.996
61.18
67.289
73.296
79.179
84.912
90.475
95.845
101.005
105.937
110.625
115.056
119.218
123.102
126.699
130.005
133.016
135.729
138.146
140.268
142.099
143.645
144.913
145.913
146.654
147.15
147.412
147.457
147.299
146.955
146.441
145.777
144.978
144.064
143.052
141.96
140.807
139.608
138.381
137.142
135.906
134.687
133.499
132.353
131.262
130.236
129.284
128.416
127.64
126.961
126.386
125.92
125.567
125.331
125.214
125.218
125.342
125.588
125.954
126.438
127.038
127.752
128.576
129.508
130.542
131.675
132.904
134.224
135.63
137.12
138.688
140.332
142.047
143.831
145.68
147.592
149.564
151.595
153.681
155.82
158.009
160.246
162.528
164.85
167.211
169.605
172.03
174.482
176.957
179.451
181.962
184.484
187.014
189.547
192.08
194.606
197.12
199.616
202.089
204.533
206.94
209.304
211.62
213.878
216.072
218.192
220.229
222.174
224.016
225.745
227.353
228.828
230.164
231.351
232.382
233.25
233.95
234.473
234.815
234.968
234.928
234.688
234.243
233.589
232.722
231.639
230.337
228.817
227.077
225.118
222.944
220.56
217.973
215.188
212.214
209.059
205.731
202.242
198.599
194.812
190.888
186.839
182.677
178.414
174.066
169.64
165.141
160.57
155.918
151.18
146.353
141.436
136.437
131.379
126.296
121.231
116.233
111.336
106.571
101.957
97.496
93.2
89.079
85.162
81.507
78.17
75.184
72.57
70.315
68.348
66.594
64.914
63.097
61.049
58.749
56.268
53.837
51.616
49.651
48.064
46.991
46.304
45.714
44.633
42.145
37.775
31.43
22.967
12.328
-0.259
-14.252
-28.359
-40.681
-49.993
-55.564
-56.528
-52.038
-41.26
-23.728
-0.246
27.427
57.992
90.25
122.477
152.583
177.838
195.504
204.101
203.012
191.358
168.709
135.641
93.542
45.097
-6.411
-58.36
-108.192
-152.755
-189.288
-216.021
-232.113
-238.093
-235.154
-224.249
-207.004
-186.069
-164.275
-144.023
-126.914
-113.547
-104.258
-99.629
-99.569
-103.07
-108.59
-114.465
-119.669
-123.867
-126.757
-127.845
-126.92
-124.171
-120.229
-116.032
-112.109
-108.557
-105.421
-102.751
-100.571
-98.889
-97.528
-96.114
-94.427
-92.404
-90.041
-87.402
-84.52
-81.376
-77.992
-74.437
-70.769
-67.042
-63.294
-59.539
-55.809
-52.137
-48.544
-45.06
-41.698
-38.463
-35.356
-32.369
-29.494
-26.731
-24.086
-21.563
-19.165
-16.89
-14.733
-12.695
-10.771
-8.955
-7.241
-5.619
-4.082
-2.629
-1.258
0.031
1.235
2.356
3.397
4.359
5.245
6.059
6.803
7.482
8.099
8.655
9.152
9.589
9.966
10.281
10.536
10.728
10.858
10.924
10.927
10.866
10.74
10.548
10.29
9.964
9.57
9.106
8.571
7.964
7.283
6.529
5.702
4.8
3.825
2.777
1.657
0.465
-0.796
-2.127
-3.525
-4.988
-6.515
-8.101
-9.746
-11.443
-13.19
-14.983
-16.816
-18.685
-20.586
-22.512
-24.458
-26.42
-28.391
-30.366
-32.339
-34.305
-36.257
-38.19
-40.098
-41.977
-43.82
-45.624
-47.383
-49.093
-50.75
-52.351
-53.892
-55.371
-56.784
-58.129
-59.405
-60.609
-61.74
-62.797
-63.779
-64.686
-65.518
-66.273
-66.954
-67.559
-68.091
-68.549
-68.935
-69.252
-69.5
-69.681
-69.798
-69.852
-69.845
-69.779
-69.657
-69.479
-69.248
-68.965
-68.633
-68.251
-67.823
-67.348
-66.828
-66.263
-65.654
-65.001
-64.304
-63.563
-62.78
-61.953
-61.085
-60.175
-59.225
-58.236
-57.208
-56.141
-55.038
-53.898
-52.722
-51.51
-50.265
-48.986
-47.676
-46.337
-44.971
-43.58
-42.167
-40.736
-39.288
-37.828
-36.36
-34.885
-33.409
-31.936
-30.469
-29.016
-27.581
-26.17
-24.79
-23.444
-22.139
-20.88
-19.67
-18.514
-17.415
-16.376
-15.401
-14.495
-13.66
-12.903
-12.229
-11.642
-11.148
-10.749
-10.448
-10.245
-10.14
-10.13
-10.211
-10.38
-10.634
-10.97
-11.387
-11.882
-12.453
-13.097
-13.809
-14.582
-15.412
-16.294
-17.217
-18.174
-19.16
-20.174
-21.228
-22.33
-23.477
-24.666
-25.89
-27.138
-28.4
-29.661
-30.881
-32.025
-33.058
-33.947
-34.688
-35.284
-35.724
-35.995
-36.076
-35.952
-35.648
-35.2
-34.624
-33.941
-33.161
-32.329
-31.567
-31.015
-30.802
-31.05
-31.81
-33.135
-35.129
-37.816
-41.139
-44.969
-49.005
-52.98
-56.777
-60.212
-63.121
-65.547
-67.552
-69.372
-71.545
-74.376
-78.041
-82.869
-88.848
-95.521
-102.258
-107.963
-111.265
-111.205
-106.739
-96.613
-80.173
-57.353
-28.678
4.45
40.298
77.159
112.674
143.998
168.561
184.004
188.537
181.217
161.549
129.62
87.438
37.911
-16.621
-72.748
-128.434
-181.95
-228.24
-264.019
-286.61
-293.63
-288.454
-274.88
-256.349
-237.672
-220.232
-204.481
-191.287
-180.335
-172.08
-166.786
-163.729
-161.966
-160.243
-157.734
-154.27
-149.928
-144.965
-139.674
-134.321
-129.317
-125.131
-121.989
-119.911
-118.792
-118.424
-118.629
-119.288
-120.234
-121.274
-122.283
-123.172
-123.896
-124.468
-124.887
-125.132
-125.201
-125.098
-124.834
-124.446
-123.969
-123.424
-122.847
-122.271
-121.731
-121.272
-120.918
-120.68
-120.558
-120.545
-120.627
-120.793
-121.027
-121.305
-121.605
-121.903
-122.179
-122.414
-122.59
-122.683
-122.67
-122.527
-122.234
-121.777
-121.143
-120.32
-119.3
-118.074
-116.638
-114.991
-113.133
-111.059
-108.768
-106.26
-103.535
-100.596
-97.447
-94.094
-90.544
-86.806
-82.891
-78.813
-74.586
-70.223
-65.74
-61.152
-56.478
-51.733
-46.937
-42.107
-37.262
-32.421
-27.603
-22.828
-18.113
-13.478
-8.94
-4.517
-0.225
3.92
7.904
11.713
15.333
18.754
21.964
24.955
27.718
30.248
32.54
34.589
36.394
37.956
39.275
40.354
41.199
41.815
42.209
42.391
42.369
42.156
41.763
41.203
40.49
39.639
38.665
37.584
36.412
35.166
33.862
32.517
31.147
29.767
28.394
27.043
25.727
24.46
23.254
22.121
21.072
20.116
19.26
18.513
17.879
17.364
16.969
16.698
16.549
16.522
16.615
16.822
17.139
17.56
18.075
18.677
19.355
20.099
20.898
21.738
22.608
23.493
24.381
25.257
26.107
26.919
27.679
28.375
28.995
29.529
29.966
30.297
30.514
30.611
30.582
30.421
30.127
29.695
29.127
28.424
27.588
26.624
25.538
24.338
23.033
21.635
20.154
18.605
17
15.355
13.685
12.007
10.339
8.698
7.103
5.571
4.123
2.775
1.547
0.454
-0.488
-1.264
-1.861
-2.266
-2.467
-2.455
-2.219
-1.752
-1.047
-0.098
1.097
2.54
4.228
6.157
8.321
10.71
13.313
16.116
19.107
22.272
25.596
29.064
32.66
36.368
40.171
44.051
47.991
51.968
55.962
59.951
63.916
67.841
71.707
75.491
79.176
82.745
86.184
89.477
92.604
95.536
98.249
100.728
102.961
104.942
106.669
108.139
109.359
110.36
111.177
111.85
112.416
112.888
113.276
113.599
113.882
114.156
114.44
114.725
115.005
115.297
115.606
115.92
116.202
116.341
116.214
115.728
114.763
113.202
111.022
108.249
104.978
101.441
97.828
94.26
90.963
88.163
85.867
83.942
82.001
79.422
75.916
71.481
66.028
59.442
51.868
43.754
36.229
30.951
28.982
30.906
37.372
49.113
66.842
90.906
120.598
154.29
190.734
228.851
267.155
303.711
336.028
361.467
378.047
384.584
379.779
363.237
336.051
299.731
256.116
205.728
147.969
84.477
20.526
-34.836
-72.391
-88.043
-84.169
-68.601
-49.573
-31.79
-16.392
-1.703
13.369
28.331
42.117
53.253
61.308
66.968
71.105
74.764
78.791
83.395
88.511
93.98
99.461
104.611
109.108
112.52
114.416
114.611
113.095
109.971
105.469
99.767
93.035
85.518
77.466
69.129
60.702
52.283
43.925
35.696
27.68
19.982
12.723
5.965
-0.263
-5.941
-11.076
-15.673
-19.764
-23.426
-26.761
-29.879
-32.859
-35.737
-38.529
-41.25
-43.918
-46.555
-49.189
-51.821
-54.452
-57.084
-59.717
-62.35
-64.972
-67.548
-70.03
-72.369
-74.532
-76.499
-78.265
-79.825
-81.178
-82.327
-83.281
-84.055
-84.664
-85.117
-85.42
-85.579
-85.606
-85.517
-85.331
-85.07
-84.753
-84.397
-84.02
-83.637
-83.262
-82.909
-82.586
-82.301
-82.063
-81.881
-81.767
-81.731
-81.784
-81.935
-82.195
-82.571
-83.072
-83.702
-84.467
-85.37
-86.411
-87.592
-88.913
-90.372
-91.967
-93.696
-95.554
-97.538
-99.641
-101.857
-104.177
-106.595
-109.099
-111.68
-114.327
-117.028
-119.773
-122.55
-125.347
-128.152
-130.953
-133.739
-136.496
-139.214
-141.879
-144.48
-147.006
-149.444
-151.785
-154.018
-156.135
-158.127
-159.987
-161.709
-163.286
-164.714
-165.989
-167.107
-168.066
-168.863
-169.499
-169.973
-170.286
-170.44
-170.436
-170.279
-169.972
-169.519
-168.926
-168.198
-167.342
-166.363
-165.268
-164.065
-162.759
-161.358
-159.87
-158.301
-156.66
-154.952
-153.185
-151.366
-149.501
-147.596
-145.657
-143.688
-141.696
-139.685
-137.658
-135.619
-133.571
-131.517
-129.46
-127.401
-125.343
-123.286
-121.232
-119.179
-117.129
-115.079
-113.03
-110.977
-108.921
-106.857
-104.784
-102.699
-100.6
-98.484
-96.348
-94.19
-92.007
-89.797
-87.558
-85.286
-82.979
-80.636
-78.253
-75.829
-73.362
-70.851
-68.294
-65.692
-63.044
-60.349
-57.607
-54.817
-51.979
-49.095
-46.164
-43.188
-40.167
-37.106
-34.01
-30.884
-27.736
-24.572
-21.396
-18.217
-15.041
-11.873
-8.719
-5.58
-2.459
0.639
3.705
6.732
9.714
12.643
15.513
18.315
21.041
23.682
26.234
28.695
31.057
33.31
35.442
37.433
39.269
40.945
42.458
43.806
44.996
46.032
46.935
47.735
48.454
49.119
49.753
50.372
51.001
51.663
52.369
53.142
53.995
54.916
55.893
56.901
57.886
58.811
59.636
60.283
60.684
60.749
60.361
59.432
57.887
55.663
52.713
49.043
44.724
39.926
34.903
29.926
25.241
21.02
17.419
14.43
11.852
9.47
7.01
4.229
1.056
-2.494
-6.384
-10.099
-12.69
-13.276
-10.989
-5.16
4.625
18.885
38.219
62.504
90.85
122.171
155.335
189.389
223.229
255.093
282.733
304.304
318.661
324.924
322.165
309.302
286.623
256.175
220.413
181.337
138.711
91.175
40.222
-9.227
-49.594
-73.524
-78.44
-67.279
-47.059
-25.147
-6.366
7.744
19.101
29.494
39.149
47.542
53.158
55.645
56.527
57.439
59.441
63.063
68.258
74.881
83.173
92.967
103.42
113.809
123.657
132.698
141.012
148.667
155.495
161.529
167.053
172.274
177.415
182.626
187.876
193.179
198.612
204.184
209.887
215.716
221.622
227.572
233.56
239.554
245.521
251.435
257.248
262.919
268.404
273.647
278.61
283.265
287.589
291.57
295.193
298.446
301.329
303.852
306.024
307.856
309.354
310.524
311.379
311.937
312.216
312.235
312.008
311.549
310.872
309.992
308.923
307.677
306.264
304.694
302.976
301.123
299.148
297.063
294.877
292.602
290.246
287.819
285.331
282.787
280.194
277.556
274.877
272.16
269.408
266.622
263.802
260.948
258.057
255.129
252.158
249.142
246.076
242.953
239.769
236.518
233.194
229.792
226.305
222.727
219.053
215.278
211.395
207.401
203.289
199.057
194.701
190.218
185.606
180.864
175.989
170.983
165.846
160.58
155.186
149.667
144.027
138.271
132.403
126.428
120.355
114.188
107.937
101.609
95.214
88.76
82.257
75.715
69.143
62.552
55.951
49.351
42.763
36.195
29.659
23.164
16.719
10.333
4.016
-2.224
-8.38
-14.443
-20.407
-26.263
-32.006
-37.627
-43.122
-48.484
-53.707
-58.787
-63.717
-68.494
-73.113
-77.571
-81.865
-85.992
-89.949
-93.734
-97.344
-100.778
-104.034
-107.11
-110.005
-112.718
-115.248
-117.593
-119.755
-121.731
-123.52
-125.123
-126.537
-127.763
-128.798
-129.643
-130.297
-130.76
-131.033
-131.117
-131.013
-130.725
-130.253
-129.602
-128.773
-127.77
-126.597
-125.256
-123.753
-122.092
-120.278
-118.317
-116.215
-113.981
-111.62
-109.142
-106.553
-103.864
-101.082
-98.217
-95.28
-92.281
-89.232
-86.147
-83.038
-79.922
-76.813
-73.725
-70.674
-67.674
-64.74
-61.884
-59.119
-56.461
-53.92
-51.511
-49.248
-47.143
-45.21
-43.463
-41.913
-40.572
-39.45
-38.556
-37.898
-37.482
-37.315
-37.399
-37.739
-38.334
-39.184
-40.287
-41.644
-43.249
-45.097
-47.181
-49.494
-52.025
-54.767
-57.708
-60.837
-64.141
-67.607
-71.228
-75.003
-78.935
-83.028
-87.279
-91.681
-96.219
-100.869
-105.598
-110.369
-115.133
-119.849
-124.484
-129.014
-133.43
-137.729
-141.894
-145.891
-149.666
-153.15
-156.29
-159.066
-161.476
-163.559
-165.396
-167.071
-168.724
-170.53
-172.561
-174.786
-177.072
-179.159
-180.847
-182.089
-182.803
-182.875
-182.454
-181.867
-181.684
-182.735
-185.568
-190.335
-197.208
-206.331
-217.329
-229.445
-241.424
-251.487
-258.261
-260.775
-257.845
-248.313
-231.748
-208.425
-179.507
-146.906
-112.227
-77.128
-44.013
-15.638
5.695
18.414
21.805
15.711
-0.251
-26.011
-59.578
-98.064
-139.332
-180.928
-222.089
-262.153
-296.497
-321.948
-335.904
-336.114
-326.039
-309.064
-287.929
-266.79
-246.779
-228.373
-212.461
-198.723
-187.543
-179.233
-173.285
-168.983
-165.097
-160.718
-155.581
-149.643
-143.148
-136.376
-129.518
-122.914
-116.98
-111.909
-107.735
-104.379
-101.622
-99.304
-97.318
-95.505
-93.748
-91.977
-90.132
-88.211
-86.24
-84.217
-82.138
-80.01
-77.83
-75.615
-73.397
-71.199
-69.055
-67.003
-65.077
-63.316
-61.743
-60.363
-59.179
-58.184
-57.364
-56.713
-56.216
-55.853
-55.614
-55.485
-55.452
-55.503
-55.623
-55.793
-55.996
-56.212
-56.426
-56.624
-56.796
-56.932
-57.024
-57.065
-57.052
-56.982
-56.85
-56.653
-56.384
-56.04
-55.615
-55.106
-54.511
-53.826
-53.049
-52.182
-51.223
-50.175
-49.038
-47.815
-46.507
-45.114
-43.64
-42.084
-40.449
-38.736
-36.948
-35.086
-33.153
-31.151
-29.084
-26.954
-24.763
-22.513
-20.208
-17.849
-15.438
-12.979
-10.473
-7.923
-5.332
-2.703
-0.041
2.652
5.373
8.116
10.878
13.656
16.445
19.241
22.04
24.836
27.626
30.404
33.164
35.899
38.605
41.274
43.9
46.476
48.996
51.453
53.84
56.15
58.377
60.513
62.551
64.485
66.308
68.014
69.596
71.049
72.368
73.548
74.584
75.473
76.211
76.795
77.224
77.495
77.607
77.56
77.353
76.988
76.465
75.786
74.956
73.977
72.852
71.588
70.188
68.659
67.006
65.235
63.355
61.37
59.289
57.12
54.87
52.547
50.161
47.719
45.229
42.699
40.138
37.553
34.953
32.343
29.732
27.126
24.532
21.957
19.407
16.887
14.404
11.962
9.566
7.221
4.93
2.695
0.521
-1.592
-3.64
-5.622
-7.535
-9.378
-11.149
-12.846
-14.469
-16.017
-17.488
-18.883
-20.203
-21.446
-22.614
-23.704
-24.718
-25.655
-26.515
-27.295
-27.995
-28.615
-29.153
-29.61
-29.986
-30.28
-30.493
-30.623
-30.671
-30.637
-30.518
-30.314
-30.023
-29.644
-29.177
-28.623
-27.983
-27.26
-26.456
-25.576
-24.624
-23.602
-22.514
-21.361
-20.144
-18.864
-17.521
-16.116
-14.651
-13.129
-11.556
-9.938
-8.28
-6.588
-4.867
-3.119
-1.349
0.437
2.241
4.059
5.885
7.707
9.504
11.258
12.96
14.606
16.191
17.718
19.185
20.602
21.998
23.398
24.827
26.307
27.835
29.402
31.015
32.686
34.435
36.276
38.186
40.134
42.107
44.094
46.089
48.058
49.893
51.474
52.691
53.439
53.676
53.358
52.384
50.736
48.47
45.721
42.808
40.022
37.525
35.534
34.211
33.499
33.286
33.248
32.736
31.271
28.469
23.836
17.334
9.488
1.124
-6.447
-11.638
-13.132
-9.501
0.87
18.785
44.057
75.678
111.825
150.476
189.559
226.379
257.67
280.647
293.509
295.448
286.354
266.152
235.248
195.2
148.744
99.051
48.802
0.179
-44.538
-82.758
-112.306
-131.946
-142.481
-145.591
-141.777
-132.123
-116.895
-96.673
-75.62
-56.525
-41.907
-34.337
-31.405
-30.951
-31.229
-29.273
-25.62
-21.251
-16.345
-11.949
-7.781
-3.35
1.03
5.151
8.628
11.179
12.904
13.996
14.658
15.045
15.291
15.552
15.944
16.55
17.412
18.519
19.855
21.43
23.236
25.261
27.496
29.913
32.477
35.167
37.942
40.761
43.588
46.375
49.097
51.74
54.298
56.771
59.168
61.491
63.75
65.962
68.135
70.281
72.409
74.526
76.641
78.767
80.915
83.099
85.325
87.599
89.923
92.299
94.724
97.197
99.711
102.258
104.831
107.422
110.024
112.63
115.229
117.811
120.363
122.873
125.326
127.708
130.001
132.188
134.251
136.173
137.935
139.521
140.913
142.095
143.051
143.765
144.223
144.411
144.316
143.927
143.233
142.226
140.899
139.245
137.262
134.947
132.299
129.322
126.018
122.393
118.455
114.212
109.677
104.863
99.784
94.458
88.904
83.142
77.195
71.085
64.839
58.481
52.038
45.537
39.006
32.472
25.963
19.506
13.128
6.856
0.714
-5.272
-11.078
-16.683
-22.065
-27.205
-32.086
-36.691
-41.006
-45.02
-48.722
-52.104
-55.161
-57.89
-60.288
-62.357
-64.1
-65.521
-66.628
-67.431
-67.94
-68.169
-68.133
-67.847
-67.329
-66.598
-65.673
-64.575
-63.325
-61.945
-60.455
-58.878
-57.235
-55.548
-53.838
-52.125
-50.429
-48.767
-47.157
-45.614
-44.154
-42.79
-41.531
-40.389
-39.372
-38.484
-37.731
-37.116
-36.637
-36.293
-36.082
-35.996
-36.029
-36.17
-36.41
-36.735
-37.132
-37.585
-38.079
-38.597
-39.119
-39.629
-40.105
-40.529
-40.879
-41.136
-41.28
-41.29
-41.148
-40.837
-40.338
-39.637
-38.719
-37.57
-36.179
-34.534
-32.628
-30.452
-28.003
-25.276
-22.271
-18.988
-15.433
-11.61
-7.528
-3.198
1.369
6.159
11.155
16.341
21.697
27.203
32.837
38.575
44.391
50.256
56.14
62.015
67.849
73.612
79.273
84.804
90.176
95.365
100.345
105.095
109.588
113.803
117.715
121.302
124.546
127.428
129.931
132.046
133.76
135.07
135.971
136.465
136.548
136.216
135.46
134.276
132.668
130.648
128.231
125.44
122.301
118.849
115.128
111.186
107.066
102.812
98.458
94.033
89.566
85.099
80.682
76.36
72.154
68.063
64.079
60.198
56.417
52.729
49.082
45.398
41.61
37.647
33.457
29.029
24.317
19.239
13.787
8.021
2.111
-3.62
-8.904
-13.577
-17.407
-20.201
-21.957
-22.768
-23.004
-23.313
-24.111
-25.713
-28.528
-32.601
-37.519
-42.577
-46.554
-48.038
-46.038
-39.449
-26.966
-7.918
17.744
49.309
85.18
123.682
163.296
201.774
236.264
264.195
283.302
292.133
290.027
276.148
250.006
213.09
168.475
119.112
67.602
14.299
-41.63
-97.892
-150.147
-192.267
-217.596
-223.519
-210.674
-182.749
-146.65
-109.637
-78.817
-59.116
-51.239
-52.701
-58.708
-64.956
-69.501
-72.563
-75.98
-80.882
-87.179
-93.927
-99.367
-102.584
-103.732
-103.283
-102.153
-101.174
-100.591
-100.561
-101.283
-102.746
-104.906
-107.679
-110.774
-113.872
-116.809
-119.491
-121.878
-124.015
-125.916
-127.579
-129.047
-130.374
-131.603
-132.765
-133.874
-134.934
-135.962
-136.992
-138.053
-139.161
-140.327
-141.546
-142.813
-144.117
-145.449
-146.793
-148.138
-149.473
-150.786
-152.068
-153.307
-154.491
-155.602
-156.622
-157.533
-158.315
-158.956
-159.444
-159.768
-159.923
-159.902
-159.7
-159.315
-158.742
-157.976
-157.014
-155.853
-154.492
-152.932
-151.173
-149.221
-147.081
-144.76
-142.266
-139.61
-136.802
-133.852
-130.772
-127.575
-124.274
-120.883
-117.417
-113.888
-110.313
-106.706
-103.083
-99.457
-95.844
-92.257
-88.709
-85.213
-81.779
-78.42
-75.144
-71.962
-68.88
-65.907
-63.047
-60.307
-57.689
-55.196
-52.83
-50.591
-48.478
-46.488
-44.619
-42.867
-41.226
-39.692
-38.258
-36.918
-35.665
-34.491
-33.389
-32.353
-31.374
-30.445
-29.561
-28.715
-27.9
-27.113
-26.349
-25.603
-24.874
-24.158
-23.456
-22.764
-22.085
-21.418
-20.766
-20.131
-19.517
-18.926
-18.365
-17.837
-17.35
-16.907
-16.517
-16.185
-15.918
-15.722
-15.604
-15.57
-15.627
-15.779
-16.032
-16.39
-16.857
-17.436
-18.127
-18.933
-19.851
-20.88
-22.019
-23.261
-24.604
-26.04
-27.562
-29.162
-30.831
-32.559
-34.334
-36.144
-37.976
-39.815
-41.648
-43.459
-45.234
-46.957
-48.612
-50.185
-51.661
-53.024
-54.261
-55.358
-56.3
-57.075
-57.671
-58.077
-58.282
-58.279
-58.059
-57.619
-56.953
-56.061
-54.94
-53.593
-52.019
-50.225
-48.216
-45.996
-43.576
-40.963
-38.17
-35.211
-32.101
-28.855
-25.492
-22.03
-18.487
-14.884
-11.24
-7.575
-3.908
-0.261
3.345
6.888
10.346
13.696
16.917
19.984
22.876
25.571
28.052
30.302
32.308
34.054
35.531
36.729
37.643
38.269
38.603
38.639
38.376
37.815
36.961
35.82
34.398
32.7
30.734
28.513
26.049
23.356
20.44
17.296
13.925
10.335
6.538
2.549
-1.615
-5.939
-10.387
-14.908
-19.442
-23.926
-28.312
-32.582
-36.703
-40.644
-44.372
-47.831
-50.992
-53.845
-56.35
-58.471
-60.193
-61.51
-62.489
-63.266
-63.962
-64.727
-65.73
-67.035
-68.655
-70.518
-72.407
-74.123
-75.521
-76.399
-76.541
-75.919
-74.749
-73.531
-73.065
-74.071
-76.929
-81.929
-89.427
-99.452
-111.435
-124.199
-135.791
-144.041
-147.444
-144.607
-133.789
-113.826
-84.366
-45.787
-0.5
48.503
99.631
150.189
198.046
241.532
275.805
297.46
303.494
291.116
263.332
223.89
176.756
125.058
66.6
0.99
-69.055
-136.355
-188.794
-220.181
-229.651
-221.037
-202.469
-176.879
-145.728
-112.299
-79.931
-54.46
-39.787
-34.578
-34.424
-34.543
-32.487
-28.677
-25.527
-24.764
-26.106
-28.49
-30.403
-30.664
-29.155
-26.251
-22.415
-18.204
-14.189
-10.631
-7.693
-5.593
-4.341
-3.866
-4.081
-4.731
-5.488
-6.182
-6.72
-7.042
-7.177
-7.137
-6.911
-6.546
-6.107
-5.632
-5.144
-4.655
-4.158
-3.664
-3.205
-2.802
-2.47
-2.214
-2.025
-1.893
-1.809
-1.757
-1.721
-1.684
-1.629
-1.543
-1.417
-1.24
-1
-0.683
-0.272
0.249
0.894
1.67
2.587
3.647
4.855
6.209
7.709
9.35
11.132
13.052
15.109
17.3
19.619
22.062
24.621
27.287
30.052
32.904
35.831
38.821
41.862
44.942
48.048
51.169
54.291
57.401
60.488
63.538
66.539
69.48
72.348
75.132
77.822
80.409
82.884
85.239
87.468
89.564
91.523
93.341
95.016
96.545
97.928
99.165
100.256
101.205
102.014
102.687
103.229
103.647
103.947
104.136
104.222
104.213
104.118
103.946
103.705
103.405
103.055
102.665
102.243
101.8
101.343
100.882
100.425
99.978
99.55
99.146
98.772
98.433
98.133
97.876
97.664
97.499
97.382
97.313
97.292
97.318
97.388
97.5
97.65
97.835
98.051
98.293
98.556
98.836
99.128
99.426
99.725
100.02
100.306
100.577
100.829
101.056
101.255
101.421
101.552
101.645
101.696
101.705
101.671
101.593
101.472
101.308
101.104
100.861
100.584
100.277
99.945
99.595
99.233
98.865
98.501
98.147
97.813
97.505
97.232
97.002
96.823
96.703
96.65
96.671
96.773
96.962
97.246
97.631
98.121
98.72
99.432
100.257
101.199
102.258
103.433
104.722
106.125
107.637
109.254
110.972
112.784
114.68
116.65
118.683
120.765
122.885
125.027
127.176
129.317
131.435
133.514
135.54
137.497
139.366
141.131
142.776
144.283
145.635
146.815
147.804
148.587
149.151
149.482
149.571
149.406
148.977
148.278
147.305
146.054
144.521
142.703
140.598
138.209
135.541
132.603
129.4
125.94
122.232
118.289
114.124
109.75
105.173
100.398
95.425
90.259
84.912
79.397
73.722
67.909
61.984
55.985
49.972
43.992
38.076
32.259
26.564
21.019
15.664
10.525
5.625
1
-3.318
-7.281
-10.835
-13.988
-16.785
-19.304
-21.68
-24.004
-26.36
-28.901
-31.673
-34.634
-37.681
-40.542
-42.959
-44.85
-46.059
-46.376
-45.928
-44.965
-43.951
-43.768
-45.006
-47.942
-53.044
-60.618
-70.356
-81.604
-93.031
-102.589
-108.653
-109.653
-103.78
-89.677
-66.535
-34.923
3.428
46.851
93.074
140.504
187.208
228.048
258.728
274.938
272.865
254.276
221.855
179.488
131.839
79.974
24.598
-33.843
-92.37
-144.203
-183.019
-203.074
-203.923
-190.495
-167.42
-139.986
-111.37
-81.619
-52.028
-23.968
1.354
21.756
35.958
43.917
46.344
44.748
40.98
36.601
32.479
29.19
27.315
27.062
28.277
30.572
33.128
35.098
36.185
36.322
35.45
33.676
31.082
27.741
23.986
20.219
16.638
13.358
10.433
7.843
5.669
4.009
2.851
2.131
1.746
1.566
1.513
1.541
1.595
1.641
1.648
1.589
1.474
1.326
1.157
0.969
0.733
0.414
0.002
-0.5
-1.066
-1.655
-2.24
-2.795
-3.286
-3.689
-3.985
-4.159
-4.217
-4.172
-4.027
-3.787
-3.448
-3
-2.441
-1.772
-0.991
-0.102
0.893
1.989
3.18
4.457
5.813
7.241
8.739
10.305
11.935
13.624
15.369
17.162
18.998
20.869
22.765
24.677
26.595
28.508
30.407
32.28
34.119
35.912
37.649
39.32
40.914
42.421
43.83
45.132
46.315
47.37
48.287
49.057
49.671
50.122
50.402
50.506
50.429
50.167
49.717
49.076
48.243
47.218
46.001
44.594
42.998
41.217
39.257
37.123
34.821
32.361
29.75
26.997
24.113
21.109
17.994
14.781
11.482
8.109
4.674
1.191
-2.326
-5.866
-9.415
-12.959
-16.487
-19.986
-23.444
-26.85
-30.195
-33.467
-36.659
-39.761
-42.766
-45.667
-48.457
-51.132
-53.687
-56.118
-58.422
-60.597
-62.643
-64.557
-66.342
-67.997
-69.524
-70.924
-72.201
-73.356
-74.392
-75.314
-76.124
-76.826
-77.424
-77.923
-78.325
-78.635
-78.857
-78.994
-79.048
-79.023
-78.92
-78.74
-78.486
-78.157
-77.755
-77.279
-76.731
-76.109
-75.413
-74.642
-73.796
-72.873
-71.871
-70.789
-69.624
-68.375
-67.041
-65.621
-64.112
-62.515
-60.829
-59.054
-57.191
-55.239
-53.198
-51.071
-48.857
-46.559
-44.179
-41.721
-39.189
-36.588
-33.924
-31.204
-28.436
-25.628
-22.786
-19.92
-17.036
-14.145
-11.254
-8.372
-5.509
-2.675
0.121
2.868
5.555
8.173
10.711
13.159
15.509
17.754
19.888
21.907
23.805
25.577
27.218
28.727
30.1
31.333
32.425
33.373
34.178
34.846
35.382
35.793
36.085
36.264
36.333
36.298
36.16
35.919
35.572
35.108
34.521
33.819
33.009
32.113
31.146
30.117
29.043
27.951
26.852
25.761
24.682
23.6
22.53
21.492
20.507
19.624
18.873
18.261
17.808
17.497
17.282
17.133
16.968
16.674
16.208
15.495
14.464
13.173
11.667
10.043
8.535
7.268
6.299
5.786
5.78
6.166
6.773
7.089
6.404
4.265
0.268
-5.909
-14.219
-24.342
-35.58
-46.561
-55.626
-61.195
-61.683
-55.905
-43.304
-23.907
1.518
31.447
63.854
96.169
125.432
148.885
164.185
169.696
164.475
147.966
120.3
82.754
37.596
-12.344
-63.949
-114.403
-161.073
-201.086
-232.052
-252.772
-263.169
-264.138
-257.306
-244.418
-227.401
-208.755
-190.855
-175.27
-162.875
-153.853
-147.839
-144.371
-142.874
-142.386
-141.952
-141.059
-139.494
-137.332
-134.874
-132.358
-130.01
-128.171
-127.14
-127.022
-127.794
-129.318
-131.389
-133.866
-136.621
-139.493
-142.355
-145.11
-147.706
-150.138
-152.411
-154.512
-156.433
-158.177
-159.754
-161.193
-162.525
-163.77
-164.957
-166.113
-167.269
-168.462
-169.71
-171.018
-172.384
-173.798
-175.25
-176.733
-178.231
-179.724
-181.199
-182.636
-184.023
-185.349
-186.599
-187.754
-188.8
-189.718
-190.497
-191.128
-191.602
-191.914
-192.059
-192.034
-191.838
-191.471
-190.934
-190.223
-189.338
-188.278
-187.041
-185.629
-184.043
-182.286
-180.361
-178.272
-176.027
-173.631
-171.091
-168.415
-165.609
-162.682
-159.642
-156.496
-153.253
-149.923
-146.514
-143.035
-139.498
-135.912
-132.287
-128.633
-124.961
-121.279
-117.599
-113.931
-110.283
-106.667
-103.092
-99.568
-96.104
-92.711
-89.397
-86.17
-83.039
-80.011
-77.092
-74.288
-71.605
-69.046
-66.616
-64.316
-62.15
-60.119
-58.223
-56.464
-54.839
-53.349
-51.991
-50.763
-49.662
-48.684
-47.826
-47.082
-46.448
-45.919
-45.488
-45.148
-44.894
-44.718
-44.612
-44.569
-44.579
-44.636
-44.73
-44.852
-44.994
-45.147
-45.303
-45.454
-45.591
-45.707
-45.794
-45.845
-45.854
-45.813
-45.718
-45.563
-45.342
-45.052
-44.686
-44.242
-43.716
-43.105
-42.406
-41.615
-40.732
-39.752
-38.676
-37.501
-36.226
-34.85
-33.372
-31.794
-30.114
-28.334
-26.455
-24.479
-22.406
-20.239
-17.98
-15.631
-13.195
-10.674
-8.071
-5.389
-2.63
0.202
3.104
6.072
9.103
12.195
15.344
18.546
21.799
25.097
28.438
31.817
35.228
38.667
42.127
45.602
49.086
52.573
56.056
59.529
62.983
66.413
69.813
73.175
76.491
79.755
82.959
86.094
89.153
92.129
95.013
97.798
100.476
103.04
105.482
107.795
109.97
111.998
113.869
115.571
117.097
118.434
119.575
120.51
121.233
121.739
122.026
122.091
121.934
121.552
120.944
120.11
119.048
117.759
116.244
114.504
112.545
110.372
107.991
105.412
102.64
99.681
96.538
93.206
89.685
85.983
82.109
78.078
73.906
69.617
65.236
60.801
56.348
51.914
47.537
43.245
39.062
35.014
31.129
27.452
24.014
20.821
17.866
15.137
12.624
10.334
8.25
6.307
4.423
2.51
0.479
-1.716
-4.134
-6.88
-9.987
-13.424
-17.065
-20.614
-23.778
-26.378
-28.203
-29.007
-28.799
-27.743
-26.24
-25.065
-24.819
-25.776
-28.294
-32.67
-38.624
-45.419
-51.749
-55.726
-55.856
-51.141
-40.367
-22.364
3.318
36.395
75.569
118.678
163.788
209.064
251.993
289.727
319.692
339.621
348.118
344.554
328.35
300.176
262.522
218.204
169.79
118.515
64.231
8.538
-43.671
-85.476
-110.486
-115.293
-102.557
-78.998
-51.027
-25.636
-6.011
7.974
15.795
20.028
22.421
23.491
25.269
27.456
29.899
33.068
36.292
39.942
44.337
49.067
53.955
58.506
62.11
64.639
66.124
66.659
66.454
65.659
64.401
62.824
61.084
59.316
57.606
56.018
54.582
53.312
52.227
51.35
50.694
50.253
50.015
49.945
50.013
50.199
50.474
50.811
51.176
51.528
51.837
52.092
52.283
52.408
52.471
52.468
52.403
52.293
52.147
51.979
51.798
51.609
51.418
51.236
51.073
50.938
50.838
50.774
50.749
50.762
50.814
50.902
51.023
51.171
51.34
51.528
51.732
51.949
52.177
52.411
52.649
52.887
53.123
53.351
53.568
53.768
53.947
54.101
54.226
54.32
54.379
54.399
54.38
54.318
54.214
54.064
53.869
53.627
53.339
53.005
52.627
52.204
51.74
51.236
50.696
50.121
49.514
48.88
48.221
47.54
46.84
46.126
45.4
44.665
43.927
43.188
42.452
41.724
41.008
40.306
39.624
38.963
38.329
37.723
37.149
36.609
36.107
35.643
35.22
34.84
34.505
34.215
33.971
33.774
33.624
33.521
33.464
33.451
33.483
33.558
33.674
33.83
34.023
34.253
34.517
34.813
35.137
35.487
35.86
36.253
36.662
37.084
37.515
37.951
38.388
38.823
39.25
39.664
40.062
40.438
40.787
41.104
41.384
41.621
41.812
41.951
42.034
42.056
42.016
41.907
41.728
41.476
41.147
40.739
40.252
39.683
39.033
38.3
37.488
36.595
35.626
34.581
33.465
32.28
31.032
29.724
28.364
26.957
25.51
24.032
22.531
21.018
19.501
17.992
16.501
15.038
13.616
12.243
10.931
9.69
8.53
7.461
6.493
5.635
4.895
4.281
3.801
3.46
3.263
3.214
3.314
3.566
3.969
4.522
5.223
6.069
7.056
8.177
9.427
10.798
12.28
13.859
15.524
17.258
19.045
20.867
22.705
24.542
26.36
28.141
29.869
31.53
33.107
34.586
35.95
37.182
38.264
39.18
39.915
40.456
40.79
40.908
40.803
40.473
39.914
39.124
38.096
36.817
35.276
33.471
31.402
29.078
26.515
23.73
20.749
17.609
14.347
11.004
7.613
4.198
0.775
-2.64
-6.021
-9.326
-12.521
-15.589
-18.529
-21.361
-24.102
-26.767
-29.386
-32.007
-34.708
-37.571
-40.666
-44.047
-47.747
-51.765
-56.151
-60.994
-66.28
-71.914
-77.671
-83.187
-88.193
-92.516
-95.902
-98.116
-99.081
-98.873
-97.956
-97.084
-96.833
-97.651
-99.874
-103.463
-108.057
-112.975
-116.894
-118.244
-115.536
-107.136
-91.847
-69.251
-39.41
-3.775
35.456
76.826
117.799
156.553
191.674
218.514
233.828
234.621
217.49
185.248
141.662
89.787
34.726
-22.777
-82.51
-139.806
-190.98
-230.791
-254.6
-264.687
-263.825
-255.189
-243.009
-227.721
-210.444
-193.479
-177.535
-164.041
-153.843
-146.39
-141.378
-138.244
-135.87
-133.338
-130.156
-126.087
-121.269
-116.08
-110.8
-105.692
-101.166
-97.623
-95.283
-94.253
-94.472
-95.733
-97.835
-100.561
-103.64
-106.821
-109.916
-112.788
-115.369
-117.621
-119.505
-120.991
-122.046
-122.646
-122.758
-122.331
-121.322
-119.732
-117.595
-114.99
-112.032
-108.811
-105.399
-101.855
-98.214
-94.503
-90.742
-86.927
-83.047
-79.1
-75.094
-71.06
-67.029
-63.012
-59.005
-54.985
-50.919
-46.781
-42.553
-38.212
-33.746
-29.15
-24.423
-19.579
-14.641
-9.624
-4.536
0.618
5.837
11.114
16.44
21.804
27.192
32.591
37.988
43.364
48.703
53.989
59.211
64.357
69.42
74.391
79.259
84.015
88.647
93.144
97.496
101.69
105.714
109.556
113.206
116.653
119.89
122.907
125.696
128.251
130.565
132.634
134.453
136.017
137.326
138.376
139.167
139.7
139.978
140.002
139.776
139.307
138.602
137.668
136.514
135.149
133.584
131.83
129.9
127.806
125.561
123.178
120.674
118.062
115.36
112.583
109.746
106.867
103.961
101.045
98.132
95.238
92.378
89.564
86.809
84.126
81.524
79.014
76.603
74.3
72.109
70.035
68.082
66.25
64.539
62.948
61.474
60.114
58.862
57.712
56.655
55.683
54.787
53.955
53.176
52.437
51.726
51.029
50.331
49.619
48.88
48.098
47.26
46.352
45.363
44.279
43.089
41.782
40.35
38.784
37.076
35.224
33.221
31.067
28.762
26.305
23.701
20.954
18.069
15.054
11.919
8.672
5.328
1.898
-1.602
-5.156
-8.747
-12.358
-15.969
-19.56
-23.113
-26.607
-30.024
-33.344
-36.547
-39.614
-42.526
-45.267
-47.819
-50.164
-52.29
-54.18
-55.825
-57.214
-58.34
-59.198
-59.781
-60.09
-60.122
-59.88
-59.367
-58.587
-57.546
-56.252
-54.715
-52.949
-50.968
-48.787
-46.427
-43.907
-41.25
-38.476
-35.608
-32.666
-29.672
-26.646
-23.608
-20.575
-17.567
-14.604
-11.705
-8.894
-6.189
-3.607
-1.163
1.13
3.259
5.213
6.986
8.577
9.986
11.205
12.227
13.033
13.615
13.979
14.133
14.086
13.848
13.435
12.876
12.221
11.522
10.816
10.127
9.455
8.814
8.227
7.725
7.348
7.106
6.984
6.986
7.126
7.421
7.879
8.451
9.017
9.463
9.697
9.66
9.347
8.73
7.738
6.378
4.725
2.956
1.35
0.133
-0.611
-0.825
-0.421
0.539
1.957
3.667
5.206
6.141
6.238
5.377
3.645
1.609
0.004
-0.554
0.931
5.564
14.264
27.869
46.897
71.002
99.258
130.991
164.491
196.941
226.531
251.506
270.83
285.778
294.738
293.906
280.897
252.341
209.427
156.909
96.919
33.773
-28.821
-87.04
-132.715
-160.804
-169.671
-160.937
-141.216
-117.463
-95.637
-79.936
-72.374
-71.725
-74.156
-76.692
-76.507
-73.258
-69.447
-66.124
-63.826
-62.489
-60.756
-58.25
-55.319
-52.196
-49.342
-47.108
-45.586
-44.848
-44.902
-45.622
-46.827
-48.359
-50.099
-51.926
-53.716
-55.369
-56.794
-57.942
-58.817
-59.416
-59.731
-59.762
-59.52
-59.021
-58.311
-57.427
-56.401
-55.273
-54.084
-52.877
-51.702
-50.598
-49.585
-48.681
-47.893
-47.224
-46.681
-46.261
-45.956
-45.761
-45.666
-45.668
-45.763
-45.946
-46.21
-46.544
-46.941
-47.393
-47.898
-48.456
-49.065
-49.725
-50.438
-51.208
-52.04
-52.938
-53.905
-54.942
-56.052
-57.238
-58.504
-59.854
-61.29
-62.819
-64.444
-66.172
-68.009
-69.961
-72.033
-74.229
-76.555
-79.014
-81.611
-84.348
-87.229
-90.254
-93.424
-96.74
-100.201
-103.804
-107.548
-111.426
-115.434
-119.563
-123.807
-128.155
-132.597
-137.119
-141.709
-146.353
-151.034
-155.736
-160.442
-165.131
-169.786
-174.386
-178.91
-183.337
-187.645
-191.812
-195.817
-199.638
-203.255
-206.646
-209.793
-212.676
-215.279
-217.584
-219.578
-221.246
-222.577
-223.561
-224.189
-224.457
-224.36
-223.895
-223.064
-221.867
-220.311
-218.4
-216.145
-213.554
-210.641
-207.419
-203.905
-200.115
-196.068
-191.784
-187.283
-182.587
-177.718
-172.699
-167.552
-162.301
-156.968
-151.576
-146.147
-140.703
-135.264
-129.85
-124.479
-119.167
-113.93
-108.781
-103.732
-98.793
-93.972
-89.275
-84.707
-80.27
-75.963
-71.786
-67.735
-63.803
-59.984
-56.27
-52.65
-49.112
-45.646
-42.238
-38.874
-35.541
-32.225
-28.911
-25.584
-22.229
-18.833
-15.38
-11.858
-8.252
-4.551
-0.743
3.18
7.227
11.405
15.719
20.173
24.769
29.508
34.388
39.406
44.56
49.842
55.245
60.759
66.372
72.072
77.844
83.675
89.548
95.448
101.358
107.262
113.145
118.991
124.784
130.506
136.141
141.673
147.083
152.356
157.472
162.418
167.177
171.74
176.095
180.235
184.153
187.846
191.309
194.541
197.543
200.312
202.848
205.154
207.236
209.099
210.754
212.206
213.464
214.542
215.45
216.197
216.788
217.216
217.483
217.597
217.568
217.409
217.137
216.765
216.319
215.845
215.387
214.992
214.697
214.514
214.458
214.553
214.827
215.317
216.031
216.95
218.053
219.337
220.803
222.437
224.171
225.868
227.384
228.585
229.374
229.669
229.359
228.397
226.795
224.659
222.255
219.829
217.546
215.6
214.136
213.07
212.253
211.379
209.878
207.423
203.795
198.631
191.933
184.191
176.197
169.256
164.867
164.061
167.981
178.022
194.947
218.941
249.419
284.759
323.263
363.359
402.629
438.153
467.297
487.471
496.896
494.73
479.877
452.32
414.136
367.817
315.661
258.877
197.405
132.777
70.201
17.343
-19.693
-37.519
-37.315
-24.756
-3.796
20.683
43.051
61.124
71.49
73.59
71.382
67.177
64.065
63.802
64.672
65.918
66.903
67.322
68.265
70.252
73.22
76.691
79.851
82.198
83.585
84.08
83.836
82.916
81.352
79.346
77.092
74.769
72.569
70.552
68.739
67.177
65.883
64.861
64.121
63.652
63.412
63.374
63.503
63.764
64.132
64.567
65.025
65.46
65.815
66.054
66.152
66.092
65.864
65.456
64.855
64.061
63.082
61.927
60.601
59.107
57.444
55.618
53.642
51.525
49.28
46.915
44.434
41.845
39.156
36.372
33.502
30.55
27.519
24.418
21.255
18.042
14.79
11.511
8.216
4.918
1.63
-1.633
-4.859
-8.036
-11.152
-14.193
-17.147
-20.002
-22.746
-25.367
-27.855
-30.199
-32.391
-34.421
-36.284
-37.972
-39.481
-40.807
-41.946
-42.895
-43.654
-44.224
-44.604
-44.796
-44.804
-44.631
-44.284
-43.768
-43.091
-42.261
-41.287
-40.181
-38.952
-37.613
-36.176
-34.654
-33.06
-31.407
-29.708
-27.979
-26.231
-24.48
-22.737
-21.016
-19.329
-17.688
-16.103
-14.585
-13.142
-11.784
-10.517
-9.348
-8.283
-7.325
-6.479
-5.748
-5.133
-4.634
-4.252
-3.986
-3.833
-3.79
-3.854
-4.019
-4.28
-4.63
-5.062
-5.569
-6.143
-6.774
-7.455
-8.176
-8.928
-9.703
-10.491
-11.283
-12.072
-12.85
-13.608
-14.341
-15.043
-15.708
-16.331
-16.911
-17.443
-17.926
-18.359
-18.741
-19.071
-19.351
-19.583
-19.768
-19.909
-20.011
-20.077
-20.113
-20.126
-20.121
-20.106
-20.087
-20.072
-20.069
-20.086
-20.131
-20.211
-20.335
-20.51
-20.746
-21.049
-21.429
-21.892
-22.445
-23.095
-23.846
-24.706
-25.676
-26.762
-27.965
-29.289
-30.737
-32.312
-34.015
-35.849
-37.814
-39.911
-42.141
-44.502
-46.993
-49.61
-52.352
-55.216
-58.2
-61.301
-64.518
-67.85
-71.296
-74.855
-78.527
-82.308
-86.195
-90.183
-94.268
-98.444
-102.705
-107.044
-111.454
-115.933
-120.476
-125.083
-129.747
-134.464
-139.226
-144.026
-148.862
-153.726
-158.608
-163.5
-168.398
-173.304
-178.231
-183.184
-188.161
-193.16
-198.174
-203.196
-208.224
-213.236
-218.196
-223.07
-227.821
-232.427
-236.89
-241.201
-245.345
-249.304
-253.046
-256.564
-259.882
-263.001
-265.913
-268.606
-271.071
-273.363
-275.598
-277.885
-280.338
-283.029
-286.01
-289.388
-293.206
-297.415
-301.891
-306.371
-310.573
-314.362
-317.572
-319.961
-321.552
-322.518
-323.188
-324.237
-326.172
-329.185
-333.63
-339.867
-347.696
-356.514
-365.17
-371.92
-375.395
-374.618
-368.302
-355.136
-334.458
-306.303
-271.768
-232.85
-191.404
-149.301
-109.138
-73.959
-46.607
-29.476
-24.1
-31.258
-51.534
-84.347
-127.333
-177.479
-231.977
-289.725
-350.651
-412.683
-470.919
-517.487
-544.97
-550.586
-536.516
-509.387
-476.461
-442.395
-409.084
-376.039
-342.883
-310.604
-281.241
-257.303
-239.912
-228.793
-223.019
-221.06
-221.734
-224.105
-226.838
-228.834
-229.551
-228.76
-226.681
-223.859
-220.685
-217.622
-215.381
-214.436
-214.958
-216.92
-220.019
-223.901
-228.309
-232.935
-237.38
-241.325
-244.551
-246.939
-248.494
-249.24
-249.178
-248.331
-246.748
-244.504
-241.688
-238.406
-234.75
-230.779
-226.541
-222.079
-217.433
-212.651
-207.773
-202.809
-197.758
-192.628
-187.425
-182.162
-176.849
-171.468
-165.992
-160.39
-154.629
-148.691
-142.574
-136.273
-129.794
-123.146
-116.346
-109.421
-102.408
-95.335
-88.225
-81.101
-73.984
-66.903
-59.888
-52.967
-46.169
-39.521
-33.048
-26.773
-20.718
-14.899
-9.331
-4.023
1.017
5.782
10.266
14.464
18.372
21.988
25.311
28.344
31.09
33.555
35.748
37.681
39.367
40.822
42.062
43.108
43.979
44.696
45.281
45.757
46.149
46.479
46.773
47.055
47.349
47.68
48.071
48.546
49.125
49.831
50.681
51.694
52.887
54.275
55.87
57.686
59.73
62.012
64.538
67.311
70.333
73.604
77.121
80.879
84.87
89.086
93.514
98.141
102.951
107.929
113.054
118.307
123.668
129.114
134.623
140.17
145.731
151.283
156.8
162.259
167.636
172.906
178.047
183.037
187.853
192.476
196.887
201.066
204.998
208.667
212.059
215.162
217.967
220.464
222.647
224.512
226.056
227.279
228.183
228.772
229.051
229.029
228.713
228.117
227.251
226.131
224.772
223.192
221.407
219.437
217.303
215.024
212.622
210.12
207.539
204.902
202.23
199.547
196.875
194.234
191.645
189.13
186.707
184.397
182.216
180.182
178.309
176.613
175.107
173.8
172.703
171.822
171.164
170.732
170.529
170.555
170.81
171.291
171.993
172.911
174.038
175.365
176.881
178.572
180.423
182.417
184.537
186.766
189.084
191.473
193.912
196.386
198.879
201.372
203.846
206.281
208.658
210.956
213.159
215.245
217.196
218.996
220.631
222.09
223.365
224.445
225.317
225.966
226.374
226.528
226.419
226.044
225.401
224.498
223.345
221.965
220.388
218.639
216.743
214.72
212.589
210.378
208.111
205.807
203.502
201.22
198.976
196.774
194.603
192.432
190.241
188.003
185.66
183.156
180.422
177.386
173.987
170.177
165.895
161.057
155.64
149.696
143.372
136.939
130.675
124.78
119.497
115.147
111.834
109.45
107.684
105.887
103.566
100.546
96.518
91.126
84.522
77.259
70.414
65.66
64.273
67.085
75.237
89.915
111.735
140.726
175.909
215.419
257.583
300.702
342.373
379.774
410.005
430.438
439.306
435.41
418.394
389.182
349.327
301.266
245.952
182.417
112.342
39.528
-28.106
-79.064
-107.953
-114.396
-102.307
-79.712
-50.482
-16.655
18.723
52.1
77.97
92.407
95.53
91.408
85.506
81.386
79.959
79.731
79.03
77.64
76.613
77.467
80.793
86.193
92.678
99.001
104.589
109.284
112.855
115.273
116.596
116.895
116.52
115.939
115.392
115.006
114.85
114.877
115.079
115.486
116.054
116.719
117.437
118.166
118.897
119.647
120.404
121.137
121.806
122.355
122.754
122.991
123.061
122.965
122.706
122.285
121.711
121.002
120.173
119.237
118.204
117.079
115.874
114.608
113.3
111.974
110.646
109.33
108.038
106.779
105.563
104.4
103.293
102.246
101.263
100.349
99.51
98.75
98.073
97.481
96.974
96.552
96.215
95.959
95.782
95.678
95.642
95.667
95.749
95.88
96.051
96.255
96.482
96.723
96.969
97.208
97.43
97.624
97.779
97.885
97.93
97.904
97.796
97.597
97.299
96.891
96.366
95.717
94.936
94.019
92.959
91.754
90.399
88.893
87.233
85.42
83.455
81.339
79.075
76.667
74.118
71.434
68.621
65.686
62.635
59.477
56.22
52.873
49.447
45.951
42.395
38.791
35.149
31.48
27.794
24.105
20.42
16.753
13.111
9.507
5.949
2.448
-0.99
-4.354
-7.638
-10.835
-13.937
-16.94
-19.838
-22.627
-25.302
-27.862
-30.303
-32.622
-34.819
-36.893
-38.842
-40.668
-42.369
-43.948
-45.405
-46.742
-47.961
-49.063
-50.05
-50.924
-51.687
-52.341
-52.887
-53.329
-53.667
-53.904
-54.04
-54.079
-54.021
-53.867
-53.619
-53.276
-52.84
-52.309
-51.683
-50.962
-50.143
-49.227
-48.213
-47.099
-45.886
-44.572
-43.157
-41.64
-40.022
-38.303
-36.482
-34.562
-32.544
-30.43
-28.224
-25.933
-23.56
-21.113
-18.598
-16.023
-13.398
-10.732
-8.034
-5.314
-2.583
0.147
2.862
5.546
8.186
10.766
13.266
15.669
17.956
20.109
22.111
23.948
25.603
27.06
28.304
29.326
30.113
30.654
30.936
30.95
30.687
30.143
29.316
28.202
26.799
25.106
23.124
20.863
18.325
15.512
12.424
9.053
5.401
1.48
-2.702
-7.136
-11.805
-16.686
-21.744
-26.915
-32.152
-37.419
-42.684
-47.927
-53.115
-58.203
-63.162
-67.964
-72.581
-76.987
-81.133
-84.965
-88.479
-91.708
-94.726
-97.663
-100.598
-103.6
-106.786
-110.189
-113.779
-117.469
-121.018
-124.183
-126.857
-128.894
-130.122
-130.653
-130.735
-130.798
-131.584
-133.598
-137.047
-142.269
-149.551
-158.643
-168.874
-179.005
-187.25
-192.234
-192.985
-188.284
-176.919
-158.285
-132.464
-100.552
-64.497
-26.09
12.939
50.264
83.252
109.325
126.161
132.265
126.683
109.264
81.179
44.084
0.166
-50.15
-108.274
-172.938
-240.835
-304.201
-351.764
-378.581
-383.396
-369.476
-345.932
-316.851
-286.149
-258.766
-235.485
-219.966
-213.605
-213.116
-216.626
-220.474
-222.411
-223.809
-224.957
-226.352
-227.993
-228.012
-225.551
-220.755
-214.042
-206.593
-199.429
-192.861
-187.086
-182.329
-178.638
-176.013
-174.395
-173.471
-172.854
-172.316
-171.713
-170.96
-170.072
-169.039
-167.829
-166.458
-164.97
-163.401
-161.792
-160.158
-158.487
-156.776
-155.04
-153.302
-151.604
-149.985
-148.465
-147.051
-145.744
-144.544
-143.448
-142.455
-141.551
-140.713
-139.918
-139.148
-138.392
-137.636
-136.864
-136.051
-135.173
-134.207
-133.138
-131.952
-130.637
-129.18
-127.571
-125.802
-123.871
-121.774
-119.51
-117.076
-114.469
-111.689
-108.737
-105.619
-102.337
-98.898
-95.31
-91.581
-87.722
-83.747
-79.668
-75.498
-71.252
-66.946
-62.596
-58.219
-53.834
-49.457
-45.107
-40.804
-36.566
-32.413
-28.363
-24.433
-20.643
-17.009
-13.549
-10.278
-7.213
-4.368
-1.755
0.611
2.719
4.559
6.123
7.402
8.391
9.083
9.476
9.567
9.356
8.844
8.032
6.924
5.524
3.839
1.876
-0.357
-2.85
-5.594
-8.576
-11.783
-15.203
-18.821
-22.621
-26.589
-30.707
-34.958
-39.325
-43.789
-48.332
-52.934
-57.578
-62.244
-66.912
-71.565
-76.183
-80.748
-85.242
-89.646
-93.945
-98.121
-102.157
-106.039
-109.751
-113.278
-116.609
-119.729
-122.629
-125.296
-127.722
-129.897
-131.813
-133.463
-134.841
-135.943
-136.764
-137.301
-137.552
-137.519
-137.2
-136.6
-135.721
-134.567
-133.144
-131.458
-129.516
-127.326
-124.897
-122.238
-119.358
-116.27
-112.983
-109.511
-105.865
-102.058
-98.104
-94.017
-89.81
-85.495
-81.088
-76.601
-72.049
-67.445
-62.805
-58.143
-53.475
-48.816
-44.179
-39.58
-35.032
-30.548
-26.14
-21.819
-17.595
-13.479
-9.481
-5.609
-1.873
1.718
5.156
8.433
11.543
14.478
17.234
19.806
22.19
24.387
26.394
28.209
29.832
31.265
32.51
33.572
34.456
35.165
35.706
36.089
36.322
36.418
36.386
36.236
35.974
35.611
35.157
34.621
34.011
33.326
32.558
31.707
30.78
29.791
28.764
27.72
26.679
25.67
24.727
23.886
23.176
22.617
22.209
21.961
21.893
22.043
22.478
23.254
24.39
25.874
27.667
29.711
31.949
34.311
36.668
38.876
40.883
42.728
44.558
46.606
49.005
51.773
54.971
58.644
62.637
66.689
70.327
72.852
73.855
73.138
70.444
65.812
59.69
52.756
46.167
41.363
39.376
41.297
48.425
61.454
80.589
105.432
134.678
166.854
200.573
233.681
263.501
287.715
304.057
310.882
307.483
293.097
267.402
232.157
189.849
142.195
92.093
40.948
-10.098
-55.731
-92.326
-116.927
-126.585
-124.161
-112.788
-95.348
-76.578
-58.295
-41.606
-27.922
-17.383
-11.143
-10.452
-15.176
-24.354
-36.04
-48.247
-59.898
-70.53
-79.772
-87.095
-92.242
-95.431
-97.379
-99.06
-101.021
-103.356
-106.081
-109.248
-112.867
-116.923
-121.209
-125.331
-129.061
-132.324
-135.101
-137.441
-139.359
-140.82
-141.838
-142.466
-142.745
-142.721
-142.425
-141.86
-141.055
-140.033
-138.807
-137.4
-135.821
-134.07
-132.151
-130.055
-127.777
-125.323
-122.704
-119.931
-117.017
-113.968
-110.786
-107.48
-104.057
-100.521
-96.877
-93.128
-89.279
-85.341
-81.326
-77.249
-73.126
-68.969
-64.79
-60.602
-56.415
-52.242
-48.095
-43.984
-39.921
-35.918
-31.988
-28.147
-24.407
-20.782
-17.285
-13.927
-10.719
-7.673
-4.797
-2.1
0.412
2.731
4.852
6.769
8.48
9.979
11.267
12.34
13.2
13.848
14.287
14.519
14.551
14.388
14.036
13.504
12.8
11.933
10.915
9.755
8.466
7.061
5.554
3.957
2.287
0.557
-1.217
-3.021
-4.84
-6.66
-8.467
-10.248
-11.99
-13.681
-15.311
-16.87
-18.348
-19.737
-21.031
-22.223
-23.309
-24.285
-25.15
-25.902
-26.541
-27.068
-27.485
-27.795
-28.003
-28.112
-28.128
-28.058
-27.909
-27.688
-27.404
-27.064
-26.679
-26.256
-25.806
-25.338
-24.859
-24.38
-23.907
-23.45
-23.014
-22.608
-22.235
-21.9
-21.608
-21.36
-21.159
-21.004
-20.894
-20.829
-20.804
-20.818
-20.865
-20.94
-21.039
-21.155
-21.283
-21.414
-21.544
-21.663
-21.765
-21.843
-21.888
-21.894
-21.853
-21.756
-21.599
-21.376
-21.083
-20.714
-20.265
-19.73
-19.11
-18.407
-17.615
-16.728
-15.742
-14.654
-13.471
-12.214
-10.882
-9.472
-8.018
-6.56
-5.127
-3.761
-2.466
-1.201
0.018
1.149
2.3
3.606
5.015
6.551
8.229
9.757
11.628
14.363
17.018
19.114
19.179
15.56
10.151
4.529
0.478
-0.401
-0.058
0.73
2.14
5.916
14.87
27.394
40.04
45.979
38.543
19.236
-7.842
-34.4
-49.795
-51.443
-39.415
-17.04
6.486
25.244
34.368
30.615
17.348
-0.446
-16.725
-26.167
-28.014
-24.264
-18.47
-13.517
-10.211
-8.192
-6.472
-4.604
-2.703
-0.744
1.323
3.546
6.078
9.1
12.981
18.311
25.484
34.374
44.51
55.571
67.368
79.483
90.995
100.456
106.448
108.356
106.391
100.823
91.758
79.517
65.123
50.569
38.329
30.295
27.38
30.169
39.461
56.132
80.384
111.212
146.52
184.046
222.153
259.493
294.211
323.858
346.161
359.6
363.855
359.095
344.986
321.365
288.875
249.629
207.121
163.834
120.855
78.212
35.027
-6.674
-42.373
-67.14
-75.964
-68.144
-48.198
-23.499
-1.712
11.997
16.817
16.428
14.139
12.008
11.305
9.927
6.231
1.074
-4.688
-8.433
-6.673
0.406
9.984
17.754
18.505
10.421
-3.928
-19.755
-33.128
-41.816
-45.584
-45.965
-42.382
-34.835
-25.962
-18.935
-18.345
-26.491
-40.538
-55.062
-64.823
-67.231
-63.588
-57.709
-52.475
-48.963
-46.946
-45.166
-42.951
-40.486
-38.092
-35.943
-33.939
-31.926
-29.62
-27.466
-26.767
-27.244
-27.708
-26.204
-19.04
-6.462
7.774
19.948
24.767
21.869
16.262
11.813
12.692
19.637
28.889
38.123
45.741
51.238
56.118
61.064
66.026
71.046
75.865
80.422
84.946
89.51
94.093
98.691
103.254
107.752
112.21
116.551
120.56
124.183
127.478
130.423
133.188
135.432
136.096
135.401
134.313
134.419
138.706
146.995
156.285
163.587
164.659
159.23
151.316
144.023
140.7
141.926
144.701
147.19
148.153
147.239
145.683
144.028
142.242
140.416
138.414
136.26
134.165
132.159
130.202
128.342
126.547
124.65
122.636
120.535
118.239
115.913
113.333
109.592
105.073
100.845
98.355
100.508
107.199
115.208
121.231
120.452
111.867
99.451
86.754
77.755
73.542
71.258
69.266
66.842
64.296
63.246
63.98
65.731
67.988
70.219
72.097
73.4
73.567
72.21
69.503
65.979
62.094
58.084
54.039
50.02
46.263
42.969
40.106
37.46
34.825
32.099
29.287
26.447
23.58
20.656
17.68
14.689
11.735
8.852
6.048
3.303
0.607
-2.038
-4.621
-7.121
-9.518
-11.795
-13.933
-15.911
-17.714
-19.321
-20.713
-21.873
-22.79
-23.46
-23.883
-24.058
-23.981
-23.644
-23.032
-22.146
-20.994
-19.601
-18.013
-16.259
-14.352
-12.297
-10.087
-7.731
-5.273
-2.713
-0.006
2.833
5.76
8.618
11.113
13.115
14.696
15.961
17.076
18.239
19.604
21.59
24.912
29.907
36.5
44.349
52.778
61.212
69.302
76.37
81.428
83.935
83.795
81.39
77.665
73.325
68.736
64.477
61.279
59.598
59.651
61.212
63.561
66.207
68.93
71.48
73.643
75.272
76.261
76.717
76.974
77.257
77.689
78.342
79.183
80.155
81.182
82.145
82.918
83.404
83.511
83.193
82.504
81.582
80.674
80.055
79.889
80.303
81.44
83.318
85.755
88.348
90.421
91.236
90.293
87.207
81.581
73.383
63.141
51.931
41.469
33.665
30.11
32.348
42.033
60.338
87.639
122.802
163.087
205.628
247.598
287.777
326.644
362.581
392.856
412.504
413.695
392.739
350.462
290.532
220.218
146.357
73.469
7.31
-44.991
-79.143
-93.568
-91.267
-80.461
-67.079
-53.934
-41.651
-28.338
-14.088
-0.466
11.212
19.431
24.034
25.737
25.163
23.459
21.823
20.923
21.229
22.858
25.431
28.615
32.112
35.294
37.523
38.255
36.781
32.733
26.335
17.93
8.101
-2.19
-12.213
-21.239
-28.169
-32.283
-33.43
-31.681
-27.645
-22.38
-16.592
-10.942
-6.357
-3.415
-2.371
-3.344
-5.941
-9.448
-13.44
-17.58
-21.474
-24.965
-27.957
-30.37
-32.378
-34.267
-36.185
-38.219
-40.415
-42.72
-45.111
-47.595
-50.119
-52.629
-55.099
-57.51
-59.873
-62.219
-64.556
-66.882
-69.192
-71.471
-73.704
-75.883
-77.992
-80.022
-81.966
-83.817
-85.574
-87.233
-88.791
-90.24
-91.576
-92.787
-93.865
-94.797
-95.568
-96.17
-96.596
-96.848
-96.937
-96.87
-96.642
-96.232
-95.594
-94.699
-93.539
-92.12
-90.465
-88.593
-86.496
-84.219
-81.855
-79.441
-76.973
-74.34
-71.282
-67.687
-63.63
-59.206
-54.576
-49.955
-45.51
-41.656
-39.083
-38.1
-38.616
-40.275
-42.396
-44.38
-45.856
-46.167
-44.398
-40.113
-33.309
-24.449
-14.498
-4.178
6.107
15.773
24.109
30.685
35.299
38.125
39.746
40.509
40.535
40.003
39.109
38.02
36.884
35.716
34.347
32.703
30.822
28.733
26.499
24.162
21.743
19.314
17.028
15.015
13.355
12.115
11.318
10.973
11.102
11.64
12.473
13.51
14.668
15.9
17.195
18.534
19.885
21.233
22.549
23.799
24.971
26.025
26.917
27.617
28.092
28.365
28.509
28.579
28.617
28.653
28.689
28.739
28.824
28.941
29.078
29.225
29.369
29.517
29.688
29.897
30.159
30.467
30.79
31.105
31.397
31.646
31.842
31.972
32.015
31.964
31.829
31.613
31.32
30.949
30.488
29.93
29.269
28.5
27.62
26.626
25.513
24.278
22.923
21.451
19.864
18.166
16.355
14.431
12.397
10.258
8.017
5.679
3.248
0.729
-1.868
-4.534
-7.257
-10.029
-12.838
-15.675
-18.53
-21.393
-24.259
-27.123
-29.986
-32.856
-35.734
-38.621
-41.513
-44.399
-47.258
-50.069
-52.798
-55.412
-57.887
-60.196
-62.321
-64.253
-65.978
-67.493
-68.786
-69.817
-70.545
-70.928
-70.94
-70.596
-69.95
-69.072
-68.06
-67.016
-66.044
-65.305
-64.859
-64.66
-64.601
-64.427
-63.936
-63.093
-61.786
-59.835
-57.349
-54.576
-51.947
-50.303
-50.229
-51.963
-55.943
-62.459
-71.191
-81.505
-92.2
-101.369
-107.41
-108.839
-103.808
-90.847
-69.852
-41.904
-8.764
27.589
67.091
110.312
155.41
197.772
229.536
242.815
233.907
204.522
161.376
111.889
61.257
11.822
-37.009
-85.111
-130.274
-169.561
-199.582
-218.375
-226.062
-223.479
-211.72
-192.317
-167.412
-139.529
-111.36
-85.198
-62.294
-43.434
-29.436
-20.499
-16.075
-15.141
-16.089
-17.34
-18.076
-17.721
-15.611
-11.457
-5.297
2.549
11.245
19.888
28.041
35.453
41.912
47.379
51.863
55.456
58.485
61.333
64.193
67.144
70.203
73.317
76.473
79.667
82.846
85.928
88.859
91.607
94.157
96.511
98.649
100.527
102.113
103.386
104.336
104.971
105.302
105.337
105.091
104.586
103.839
102.87
101.696
100.332
98.795
97.106
95.291
93.379
91.399
89.381
87.348
85.327
83.338
81.404
79.541
77.768
76.101
74.56
73.162
71.925
70.869
70.006
69.353
68.921
68.721
68.76
69.044
69.578
70.363
71.402
72.695
74.239
76.032
78.07
80.344
82.849
85.574
88.507
91.636
94.945
98.42
102.042
105.794
109.656
113.61
117.634
121.707
125.809
129.918
134.011
138.068
142.066
145.985
149.802
153.499
157.054
160.45
163.67
166.696
169.514
172.109
174.469
176.582
178.438
180.028
181.344
182.381
183.134
183.599
183.776
183.666
183.269
182.589
181.632
180.403
178.91
177.162
175.168
172.942
170.493
167.837
164.987
161.959
158.768
155.43
151.963
148.382
144.705
140.95
137.132
133.268
129.376
125.471
121.57
117.689
113.841
110.042
106.305
102.643
99.069
95.593
92.226
88.978
85.857
82.872
80.028
77.332
74.789
72.401
70.172
68.103
66.193
64.441
62.845
61.402
60.108
58.958
57.946
57.066
56.312
55.677
55.152
54.73
54.4
54.154
53.981
53.872
53.816
53.803
53.822
53.864
53.917
53.973
54.019
54.045
54.038
53.987
53.88
53.706
53.454
53.113
52.673
52.126
51.463
50.679
49.765
48.715
47.521
46.178
44.681
43.022
41.198
39.203
37.033
34.688
32.167
29.472
26.604
23.563
20.355
16.987
13.464
9.792
5.978
2.029
-2.045
-6.233
-10.522
-14.903
-19.363
-23.891
-28.473
-33.094
-37.74
-42.404
-47.079
-51.768
-56.469
-61.174
-65.878
-70.57
-75.233
-79.84
-84.347
-88.7
-92.865
-96.807
-100.501
-103.937
-107.093
-109.957
-112.518
-114.749
-116.616
-118.074
-119.082
-119.627
-119.742
-119.508
-119.048
-118.484
-117.948
-117.584
-117.45
-117.526
-117.711
-117.761
-117.474
-116.762
-115.494
-113.624
-111.371
-109.061
-107.229
-106.607
-107.602
-110.438
-115.429
-122.51
-131.13
-140.431
-148.998
-155.243
-158.073
-156.329
-148.7
-134.469
-113.463
-86.241
-54.321
-19.331
17.249
53.223
85.979
113.227
132.718
142.923
143.166
132.533
111.114
80.882
44.033
2.294
-44.139
-96.31
-153.008
-209.248
-256.529
-287.384
-299.243
-293.761
-277.778
-257.122
-234.297
-212.81
-193.01
-176.104
-165.406
-159.912
-159.619
-164.144
-170.599
-179.114
-189.356
-199.925
-210.91
-221.213
-229.461
-235.475
-239.216
-241.037
-241.863
-242.479
-243.203
-244.249
-245.796
-247.794
-250.208
-253.018
-255.957
-258.732
-261.209
-263.285
-264.932
-266.225
-267.177
-267.78
-268.077
-268.105
-267.906
-267.537
-267.033
-266.416
-265.712
-264.933
-264.094
-263.218
-262.312
-261.387
-260.443
-259.472
-258.48
-257.482
-256.494
-255.535
-254.617
-253.743
-252.92
-252.154
-251.45
-250.814
-250.245
-249.744
-249.313
-248.96
-248.691
-248.516
-248.44
-248.466
-248.596
-248.83
-249.168
-249.612
-250.157
-250.802
-251.545
-252.384
-253.32
-254.35
-255.475
-256.691
-257.995
-259.385
-260.858
-262.407
-264.03
-265.719
-267.471
-269.28
-271.142
-273.052
-275.004
-276.995
-279.02
-281.076
-283.158
-285.262
-287.385
-289.522
-291.671
-293.827
-295.989
-298.154
-300.32
-302.485
-304.646
-306.803
-308.954
-311.097
-313.229
-315.347
-317.449
-319.534
-321.6
-323.643
-325.663
-327.659
-329.628
-331.571
-333.486
-335.373
-337.23
-339.058
-340.854
-342.62
-344.353
-346.054
-347.721
-349.353
-350.951
-352.514
-354.041
-355.532
-356.988
-358.406
-359.788
-361.134
-362.443
-363.717
-364.958
-366.168
-367.353
-368.516
-369.664
-370.8
-371.931
-373.063
-374.202
-375.352
-376.516
-377.697
-378.902
-380.137
-381.408
-382.724
-384.09
-385.516
-387.011
-388.585
-390.248
-392.008
-393.869
-395.837
-397.923
-400.134
-402.487
-404.991
-407.641
-410.435
-413.366
-416.42
-419.58
-422.815
-426.081
-429.339
-432.555
-435.699
-438.75
-441.681
-444.452
-447.032
-449.389
-451.507
-453.389
-455.048
-456.499
-457.782
-458.948
-460.061
-461.217
-462.49
-463.926
-465.562
-467.417
-469.508
-471.868
-474.503
-477.392
-480.488
-483.705
-486.926
-490.025
-492.822
-495.1
-496.642
-497.195
-496.53
-494.469
-490.838
-485.488
-478.291
-469.114
-457.85
-444.463
-428.954
-411.36
-391.793
-370.398
-347.392
-323.061
-297.684
-271.561
-244.998
-218.287
-191.702
-165.484
-139.85
-115.012
-91.203
-68.633
-47.442
-27.697
-9.497
6.958
21.644
34.715
46.283
56.697
65.809
72.747
77.921
82.502
88.32
98.515
112.981
128.686
142.464
150.066
151.436
150.776
151.383
156.806
167.701
181.36
196.528
212.048
227.209
242.778
258.618
274.209
289.497
303.818
316.201
326.391
334.45
340.503
345.076
348.225
349.297
348.132
345.098
340.283
333.798
325.948
316.855
307.374
299.297
293.981
292.537
296.292
306.092
322.329
345.149
373.701
406.21
440.96
475.711
507.771
534.984
555.222
566.733
568.813
561.003
543.833
519.773
490.702
457.903
422.596
384.102
344.761
310.493
286.326
277.485
284.451
301.897
324.6
347.188
366.742
383.761
398.363
410.719
420.486
426.412
428.441
427.214
423.764
419.715
415.984
412.861
410.508
408.76
407.406
406.293
405.098
403.463
401.263
398.551
395.508
392.366
389.257
386.249
383.392
380.735
378.311
376.127
374.164
372.396
370.819
369.446
368.303
367.398
366.716
366.219
365.847
365.558
365.335
365.168
365.058
365.014
365.041
365.152
365.37
365.704
366.158
366.725
367.393
368.15
368.992
369.918
370.927
372.018
373.185
374.422
375.72
377.07
378.458
379.869
381.285
382.688
384.064
385.401
386.686
387.907
389.051
390.107
391.064
391.911
392.636
393.226
393.67
393.956
394.073
394.01
393.756
393.303
392.642
391.767
390.67
389.349
387.798
386.015
384.001
381.753
379.275
376.567
373.633
370.478
367.105
363.524
359.74
355.763
351.603
347.27
342.774
338.127
333.341
328.429
323.404
318.278
313.067
307.784
302.446
297.066
291.662
286.248
280.84
275.455
270.107
264.812
259.584
254.437
249.384
244.438
239.61
234.913
230.354
225.944
221.69
217.599
213.677
209.928
206.357
202.965
199.753
196.722
193.871
191.198
188.7
186.373
184.212
182.21
180.362
178.659
177.092
175.652
174.328
173.109
171.982
170.935
169.953
169.025
168.135
167.27
166.416
165.558
164.682
163.775
162.824
161.815
160.735
159.572
158.314
156.95
155.471
153.867
152.129
150.251
148.225
146.047
143.711
141.215
138.554
135.728
132.734
129.575
126.252
122.768
119.128
115.338
111.404
107.336
103.144
98.837
94.427
89.925
85.344
80.697
75.998
71.262
66.503
61.737
56.979
52.247
47.555
42.921
38.357
33.88
29.502
25.237
21.099
17.1
13.252
9.566
6.055
2.729
-0.4
-3.325
-6.039
-8.538
-10.817
-12.874
-14.711
-16.329
-17.733
-18.925
-19.908
-20.685
-21.263
-21.645
-21.84
-21.851
-21.685
-21.348
-20.851
-20.203
-19.417
-18.5
-17.46
-16.306
-15.051
-13.708
-12.286
-10.793
-9.239
-7.637
-6.01
-4.381
-2.775
-1.205
0.315
1.771
3.152
4.454
5.689
6.89
8.093
9.322
10.585
11.88
13.215
14.598
16.045
17.568
19.166
20.843
22.629
24.555
26.624
28.808
31.013
33.098
34.947
36.438
37.44
37.911
37.868
37.414
36.785
36.202
35.795
35.737
36.2
37.077
38.089
38.734
38.265
36.195
32.346
26.447
18.236
7.978
-3.572
-15.09
-24.733
-31.051
-33.008
-29.369
-18.804
-0.596
25.091
57.088
93.417
132.172
171.421
208.661
240.847
265.133
279.588
283.078
274.969
255.092
223.858
183.121
136.468
86.864
36.326
-13.801
-63.332
-109.22
-146.266
-170.22
-176.582
-165.548
-142.282
-111.736
-80.179
-51.574
-25.745
-3.217
15.58
29.922
37.831
38.805
34.091
25.463
15.058
4.813
-4.118
-10.765
-14.34
-14.624
-11.924
-6.941
-0.636
5.988
12.303
17.891
22.476
26.042
28.642
30.424
31.68
32.747
33.831
35.021
36.324
37.661
38.987
40.282
41.497
42.573
43.452
44.095
44.477
44.59
44.428
43.981
43.235
42.18
40.813
39.14
37.178
34.944
32.445
29.683
26.661
23.382
19.856
16.098
12.121
7.939
3.572
-0.961
-5.637
-10.433
-15.332
-20.318
-25.378
-30.501
-35.673
-40.88
-46.106
-51.339
-56.562
-61.763
-66.928
-72.042
-77.095
-82.079
-86.985
-91.807
-96.54
-101.177
-105.715
-110.151
-114.479
-118.698
-122.806
-126.8
-130.68
-134.446
-138.098
-141.637
-145.065
-148.385
-151.597
-154.704
-157.708
-160.61
-163.412
-166.115
-168.721
-171.231
-173.646
-175.967
-178.195
-180.332
-182.379
-184.336
-186.204
-187.984
-189.675
-191.277
-192.79
-194.214
-195.548
-196.792
-197.944
-199.005
-199.974
-200.85
-201.633
-202.323
-202.918
-203.42
-203.826
-204.138
-204.356
-204.48
-204.511
-204.451
-204.3
-204.06
-203.733
-203.322
-202.828
-202.253
-201.601
-200.872
-200.069
-199.194
-198.249
-197.237
-196.158
-195.014
-193.809
-192.542
-191.216
-189.832
-188.392
-186.897
-185.349
-183.749
-182.099
-180.4
-178.654
-176.863
-175.029
-173.152
-171.237
-169.283
-167.293
-165.269
-163.213
-161.127
-159.012
-156.871
-154.706
-152.519
-150.313
-148.091
-145.855
-143.608
-141.355
-139.099
-136.844
-134.594
-132.354
-130.127
-127.917
-125.731
-123.572
-121.444
-119.353
-117.301
-115.294
-113.334
-111.424
-109.568
-107.767
-106.023
-104.338
-102.714
-101.149
-99.646
-98.205
-96.824
-95.504
-94.246
-93.05
-91.914
-90.839
-89.824
-88.869
-87.973
-87.136
-86.356
-85.632
-84.962
-84.347
-83.785
-83.274
-82.815
-82.405
-82.045
-81.735
-81.475
-81.265
-81.105
-80.995
-80.936
-80.931
-80.979
-81.085
-81.251
-81.477
-81.766
-82.118
-82.531
-83.004
-83.531
-84.108
-84.73
-85.393
-86.091
-86.823
-87.586
-88.378
-89.201
-90.051
-90.923
-91.822
-92.748
-93.707
-94.708
-95.752
-96.835
-97.96
-99.124
-100.316
-101.529
-102.736
-103.906
-105.012
-106.022
-106.91
-107.655
-108.215
-108.536
-108.56
-108.229
-107.53
-106.473
-105.064
-103.325
-101.286
-99.003
-96.617
-94.211
-91.76
-89.184
-86.284
-82.892
-79.01
-74.571
-69.429
-63.713
-57.733
-52.031
-47.527
-44.908
-44.445
-46.515
-51.445
-58.971
-68.439
-78.552
-87.319
-93.155
-94.915
-91.228
-80.78
-62.913
-37.633
-6.008
29.959
68.468
107.745
145.319
178.367
204.296
220.926
226.903
221.591
204.369
175.722
137.995
94.012
46.155
-5.189
-61.032
-120.084
-177.319
-223.989
-251.522
-256.459
-241.508
-214.517
-183.654
-154.096
-127.506
-102.499
-78.208
-55.12
-34.582
-18.929
-9.143
-4.431
-3.481
-4.449
-5.648
-6.326
-5.891
-3.548
1.018
7.685
16.066
25.26
34.307
42.774
50.39
56.858
62.124
66.203
69.204
71.543
73.658
75.751
77.926
80.203
82.532
84.917
87.366
89.802
92.144
94.335
96.344
98.181
99.862
101.375
102.687
103.756
104.553
105.072
105.32
105.307
105.045
104.544
103.823
102.91
101.83
100.603
99.248
97.775
96.202
94.551
92.846
91.114
89.379
87.659
85.971
84.333
82.756
81.252
79.83
78.497
77.257
76.12
75.091
74.176
73.378
72.7
72.142
71.702
71.378
71.165
71.057
71.046
71.125
71.285
71.517
71.81
72.155
72.54
72.955
73.387
73.825
74.258
74.673
75.059
75.405
75.7
75.935
76.098
76.182
76.177
76.076
75.873
75.561
75.135
74.591
73.927
73.141
72.233
71.204
70.054
68.788
67.41
65.926
64.341
62.663
60.9
59.061
57.156
55.195
53.187
51.145
49.078
46.999
44.918
42.846
40.796
38.776
36.799
34.875
33.014
31.224
29.516
27.899
26.379
24.964
23.66
22.474
21.409
20.47
19.658
18.976
18.424
18.002
17.707
17.537
