Name
Date of Birth,"Dec 28, 2003"
Recorded Date,2024-09-19 09:55:23 -0500
Classification,Poor Recording
Symptoms,
Software Version,1.90
Device,"Watch4,4"
Sample Rate,512.711 hertz


Lead,Lead I
Unit,µV

-54.86
-50.285
-45.771
-41.311
-36.893
-32.518
-28.21
-23.972
-19.773
-15.626
-11.581
-7.673
-3.941
-0.381
3.088
6.496
9.778
13.023
16.512
20.312
24.351
28.672
32.983
37.84
44.945
53.922
63.213
70.236
70.141
63.237
54.366
48.358
52.072
65.899
83.32
99.292
108.36
109.571
107.758
105.867
105.908
108.459
111.504
114.119
116.337
118.058
119.551
120.86
121.687
121.926
121.597
120.667
119.104
116.897
114.041
110.546
106.447
101.749
96.427
90.471
83.888
76.682
68.866
60.45
51.447
41.874
31.76
21.132
10.021
-1.538
-13.511
-25.858
-38.538
-51.508
-64.721
-78.131
-91.691
-105.349
-119.058
-132.766
-146.422
-159.976
-173.377
-186.575
-199.52
-212.163
-224.455
-236.349
-247.8
-258.763
-269.197
-279.059
-288.313
-296.921
-304.851
-312.072
-318.556
-324.277
-329.214
-333.346
-336.659
-339.14
-340.777
-341.566
-341.503
-340.586
-338.819
-336.207
-332.758
-328.482
-323.394
-317.507
-310.841
-303.415
-295.253
-286.377
-276.815
-266.595
-255.748
-244.304
-232.299
-219.767
-206.744
-193.268
-179.379
-165.115
-150.517
-135.625
-120.482
-105.126
-89.6
-73.944
-58.197
-42.398
-26.586
-10.797
4.933
20.57
36.081
51.434
66.6
81.551
96.258
110.698
124.846
138.679
152.177
165.321
178.092
190.474
202.452
214.013
225.146
235.84
246.087
255.879
265.212
274.081
282.484
290.418
297.884
304.881
311.413
317.48
323.085
328.232
332.925
337.166
340.961
344.313
347.226
349.705
351.754
353.377
354.578
355.362
355.735
355.702
355.268
354.439
353.224
351.629
349.663
347.335
344.653
341.628
338.272
334.595
330.609
326.326
321.76
316.924
311.831
306.497
300.936
295.164
289.195
283.045
276.731
270.268
263.673
256.963
250.154
243.262
236.302
229.292
222.246
215.177
208.101
201.028
193.97
186.936
179.936
172.974
166.056
159.184
152.36
145.582
138.848
132.153
125.49
118.852
112.228
105.606
98.975
92.319
85.623
78.872
72.049
65.135
58.113
50.967
43.678
36.23
28.606
20.791
12.771
4.533
-3.934
-12.64
-21.592
-30.795
-40.251
-49.961
-59.923
-70.13
-80.574
-91.245
-102.129
-113.208
-124.462
-135.87
-147.407
-159.044
-170.752
-182.498
-194.25
-205.97
-217.622
-229.167
-240.567
-251.782
-262.773
-273.5
-283.927
-294.014
-303.728
-313.034
-321.901
-330.3
-338.205
-345.592
-352.443
-358.74
-364.47
-369.625
-374.199
-378.19
-381.6
-384.435
-386.704
-388.419
-389.597
-390.256
-390.418
-390.105
-389.346
-388.168
-386.601
-384.677
-382.428
-379.89
-377.094
-374.075
-370.867
-367.502
-364.01
-360.421
-356.761
-353.055
-349.325
-345.588
-341.859
-338.149
-334.466
-330.812
-327.187
-323.585
-319.998
-316.413
-312.813
-309.178
-305.486
-301.711
-297.824
-293.796
-289.594
-285.186
-280.537
-275.614
-270.382
-264.806
-258.854
-252.493
-245.692
-238.423
-230.659
-222.377
-213.558
-204.186
-194.248
-183.737
-172.651
-160.991
-148.766
-135.987
-122.674
-108.849
-94.542
-79.787
-64.625
-49.1
-33.262
-17.165
-0.866
15.572
32.086
48.608
65.071
81.404
97.537
113.399
128.918
144.024
158.648
172.722
186.18
198.961
211.003
222.252
232.654
242.162
250.733
258.329
264.916
270.468
274.962
278.383
280.72
281.97
282.135
281.223
279.249
276.233
272.201
267.185
261.22
254.348
246.615
238.069
228.763
218.753
208.097
196.855
185.091
172.868
160.25
147.302
134.09
120.678
107.13
93.51
79.878
66.295
52.819
39.506
26.411
13.583
1.072
-11.077
-22.821
-34.12
-44.938
-55.244
-65.006
-74.199
-82.8
-90.791
-98.153
-104.876
-110.948
-116.362
-121.114
-125.202
-128.626
-131.388
-133.494
-134.948
-135.758
-135.933
-135.484
-134.422
-132.759
-130.508
-127.683
-124.299
-120.371
-115.915
-110.948
-105.487
-99.547
-93.148
-86.306
-79.04
-71.368
-63.309
-54.88
-46.103
-36.996
-27.578
-17.869
-7.889
2.344
12.809
23.486
34.357
45.401
56.596
67.921
79.353
90.87
102.448
114.063
125.691
137.307
148.887
160.406
171.841
183.168
194.36
205.394
216.242
226.88
237.28
247.418
257.265
266.798
275.991
284.818
293.258
301.287
308.883
316.023
322.684
328.845
334.483
339.578
344.106
348.05
351.392
354.116
356.21
357.66
358.455
358.584
358.039
356.809
354.887
352.262
348.921
344.858
340.069
334.551
328.302
321.326
313.625
305.211
296.103
286.32
275.884
264.815
253.132
240.852
227.997
214.584
200.629
186.147
171.152
155.669
139.743
123.416
106.731
89.721
72.391
54.759
36.859
18.718
0.376
-18.102
-36.646
-55.142
-73.417
-91.303
-108.625
-125.228
-141.031
-155.974
-170.013
-183.106
-195.176
-206.149
-215.98
-224.637
-232.099
-238.424
-243.709
-248.141
-252.044
-255.772
-259.748
-264.242
-269.227
-274.46
-279.498
-283.937
-287.623
-290.46
-292.258
-293.252
-294.082
-295.55
-298.833
-304.6
-312.494
-321.796
-331.482
-339.737
-344.517
-343.718
-334.765
-315.839
-286.276
-245.79
-194.73
-134.426
-66.511
7.047
83.59
160.657
236.076
307.309
371.856
427.83
473.776
508.849
532.995
546.566
550.218
545.511
534.778
520.167
503.578
486.505
469.821
454.108
439.897
427.138
415.146
403.475
391.755
379.779
367.803
356.092
344.815
334.342
325.121
317.306
310.988
306.133
302.442
299.666
297.498
295.478
293.212
290.384
286.756
282.254
276.883
270.61
263.452
255.45
246.743
237.658
228.422
219.042
209.356
199.149
188.502
177.969
168.097
159.084
151.237
145.08
141.58
141.988
146.724
154.989
165.417
176.942
188.641
199.57
208.252
212.573
211.28
204.938
195.518
184.805
174.035
163.277
151.728
141.13
134.061
132.834
140.649
155.357
171.202
183.412
185.597
177.899
167.632
161.09
166.298
186.504
218.037
259.537
308.758
366.003
434.617
511.269
591.812
670.387
739.583
800.41
854.601
903.083
948.272
987.674
1019.347
1044.23
1063.117
1078.409
1092.387
1106.325
1121.563
1138.798
1158.168
1179.239
1200.818
1221.991
1242.192
1260.777
1277.42
1292.011
1304.507
1315.288
1325.068
1334.404
1343.577
1352.458
1360.66
1367.822
1373.412
1378.028
1382.238
1384.681
1384.889
1380.621
1369.345
1354.134
1336.987
1320.844
1309.665
1299.809
1288.276
1273.059
1250.842
1224.256
1195.931
1166.554
1137.8
1108.908
1078.843
1047.908
1015.999
983.233
949.918
916.005
881.497
846.565
811.33
775.883
740.334
704.783
669.329
634.08
599.136
564.562
530.431
496.831
463.849
431.574
400.086
369.449
339.725
310.966
283.218
256.519
230.896
206.366
182.94
160.627
139.428
119.339
100.347
82.434
65.572
49.73
34.869
20.943
7.901
-4.314
-15.762
-26.508
-36.619
-46.165
-55.214
-63.837
-72.105
-80.086
-87.849
-95.46
-102.983
-110.479
-118.005
-125.612
-133.348
-141.255
-149.366
-157.708
-166.303
-175.162
-184.29
-193.688
-203.347
-213.252
-223.381
-233.705
-244.19
-254.793
-265.468
-276.161
-286.812
-297.359
-307.733
-317.864
-327.677
-337.097
-346.046
-354.445
-362.215
-369.278
-375.557
-380.975
-385.461
-388.945
-391.363
-392.655
-392.768
-391.654
-389.272
-385.589
-380.579
-374.225
-366.515
-357.449
-347.031
-335.277
-322.209
-307.858
-292.262
-275.468
-257.529
-238.505
-218.464
-197.48
-175.632
-153.003
-129.685
-105.771
-81.358
-56.55
-31.45
-6.165
19.196
44.523
69.707
94.639
119.209
143.314
166.848
189.711
211.807
233.043
253.33
272.585
290.731
307.694
323.407
337.811
350.85
362.476
372.647
381.326
388.484
394.098
398.148
400.623
401.518
400.832
398.569
394.742
389.366
382.465
374.066
364.2
352.906
340.225
326.203
310.891
294.343
276.614
257.766
237.859
216.96
195.135
172.452
148.981
124.795
99.964
74.564
48.667
22.348
-4.317
-31.255
-58.387
-85.64
-112.935
-140.196
-167.348
-194.312
-221.013
-247.374
-273.318
-298.773
-323.664
-347.918
-371.465
-394.234
-416.16
-437.178
-457.226
-476.246
-494.181
-510.979
-526.592
-540.974
-554.084
-565.884
-576.341
-585.425
-593.11
-599.375
-604.205
-607.587
-609.512
-609.978
-608.989
-606.554
-602.689
-597.416
-590.761
-582.76
-573.455
-562.899
-551.148
-538.265
-524.32
-509.392
-493.562
-476.925
-459.576
-441.602
-423.096
-404.154
-384.871
-365.355
-345.717
-326.048
-306.437
-287.02
-267.928
-249.285
-231.222
-213.826
-197.157
-181.346
-166.55
-152.74
-139.858
-128.08
-117.484
-108.126
-100.408
-93.555
-86.782
-81.258
-77.325
-77.072
-82.994
-92.195
-102.684
-111.579
-114.957
-116.123
-117.887
-122.109
-131.931
-144.935
-158.648
-172.468
-184.946
-196.891
-209.373
-222.266
-235.778
-249.949
-264.724
-280.283
-296.717
-313.954
-331.9
-350.519
-369.747
-389.448
-409.493
-429.73
-449.935
-469.895
-489.332
-507.776
-524.754
-539.801
-552.406
-562.245
-569.108
-572.752
-572.977
-569.606
-562.498
-551.578
-536.799
-518.04
-495.186
-468.267
-437.481
-403.295
-366.262
-326.89
-285.713
-243.17
-199.653
-155.654
-111.703
-68.265
-25.772
15.306
54.473
91.062
124.292
153.625
178.786
199.721
216.505
229.158
237.652
241.995
242.261
238.616
231.294
220.439
206.124
188.548
168.041
145.118
120.472
94.57
67.581
39.609
10.708
-19.01
-49.291
-79.94
-110.866
-141.961
-173.072
-203.936
-234.135
-263.317
-291.316
-318.076
-343.656
-367.974
-390.689
-411.499
-430.163
-446.494
-460.45
-471.979
-480.948
-487.312
-491.189
-492.794
-492.515
-490.774
-487.822
-483.859
-479.068
-473.67
-468.043
-462.522
-457.334
-452.658
-448.613
-445.306
-442.894
-441.472
-440.98
-441.303
-442.234
-443.506
-444.974
-446.532
-448.064
-449.47
-450.605
-451.346
-451.646
-451.511
-450.938
-449.909
-448.391
-446.357
-443.856
-440.976
-437.829
-434.52
-431.102
-427.645
-424.218
-420.862
-417.62
-414.473
-411.341
-408.199
-405.06
-401.763
-398.129
-394.234
-390.032
-385.455
-380.801
-375.132
-367.542
-359.271
-350.684
-344.078
-342.219
-342.052
-341.552
-337.705
-326.361
-311.226
-295.444
-281.178
-271.988
-265.37
-258.785
-251.687
-242.543
-232.29
-222.131
-211.877
-201.715
-191.601
-181.335
-171.109
-161.08
-151.243
-141.622
-132.264
-123.196
-114.439
-106.013
-97.922
-90.161
-82.761
-75.749
-69.136
-62.932
-57.144
-51.775
-46.83
-42.309
-38.208
-34.517
-31.224
-28.318
-25.783
-23.602
-21.755
-20.221
-18.976
-17.995
-17.252
-16.719
-16.369
-16.173
-16.102
-16.127
-16.217
-16.345
-16.479
-16.592
-16.653
-16.633
-16.504
-16.237
-15.804
-15.178
-14.331
-13.238
-11.874
-10.217
-8.243
-5.932
-3.266
-0.226
3.202
7.034
11.281
15.955
21.066
26.622
32.629
39.095
46.022
53.416
61.278
69.61
78.411
87.681
97.414
107.608
118.256
129.349
140.877
152.828
165.185
177.933
191.051
204.516
218.305
232.39
246.743
261.331
276.121
291.078
306.165
321.343
336.572
351.809
367.011
382.134
397.132
411.956
426.56
440.894
454.909
468.555
481.781
494.539
506.78
518.456
529.52
539.928
549.637
558.608
566.805
574.194
580.746
586.437
591.244
595.153
598.151
600.233
601.396
601.644
600.984
599.43
597
593.717
589.609
584.708
579.051
572.681
565.643
557.989
549.773
541.052
531.889
522.348
512.494
502.398
492.127
481.754
471.348
460.98
450.719
440.633
430.787
421.244
412.062
403.297
395
387.218
379.992
373.361
367.355
362.002
357.323
353.333
350.043
347.458
345.575
344.388
343.884
344.046
344.849
346.265
348.259
350.792
353.821
357.299
361.175
365.395
369.902
374.638
379.543
384.558
389.62
394.671
399.652
404.505
409.176
413.611
417.763
421.583
425.029
428.062
430.646
432.749
434.344
435.407
435.919
435.865
435.234
434.02
432.22
429.839
426.882
423.36
419.289
414.688
409.578
403.986
397.94
391.473
384.616
377.405
369.877
362.068
354.016
345.757
337.328
328.763
320.098
311.364
302.592
293.811
285.048
276.328
267.673
259.104
250.64
242.298
234.091
226.032
218.129
210.391
202.822
195.425
188.2
181.146
174.26
167.536
160.967
154.544
148.257
142.095
136.047
130.101
124.244
118.464
112.749
107.091
101.478
95.904
90.362
84.844
79.348
73.871
68.412
62.97
57.546
52.144
46.767
41.42
36.11
30.844
25.632
20.484
15.412
10.43
5.551
0.789
-3.839
-8.32
-12.635
-16.768
-20.704
-24.426
-27.918
-31.165
-34.154
-36.87
-39.304
-41.446
-43.291
-44.834
-46.071
-47.001
-47.627
-47.952
-47.985
-47.734
-47.21
-46.428
-45.405
-44.163
-42.723
-41.114
-39.363
-37.505
-35.581
-33.633
-31.7
-29.828
-28.06
-26.444
-25.026
-23.849
-22.955
-22.386
-22.189
-22.414
-23.113
-24.339
-26.135
-28.551
-31.632
-35.425
-39.978
-45.328
-51.497
-58.517
-66.42
-75.245
-85.044
-95.842
-107.629
-120.383
-134.071
-148.636
-164.012
-180.099
-196.754
-213.849
-231.272
-248.935
-266.771
-284.69
-302.567
-320.256
-337.612
-354.541
-371.01
-387.009
-402.541
-417.665
-432.48
-447.155
-461.929
-476.976
-492.385
-508.182
-524.36
-540.938
-557.991
-575.621
-593.863
-612.655
-631.842
-651.203
-670.454
-689.2
-706.946
-723.078
-736.951
-748.046
-755.955
-760.324
-760.809
-756.989
-748.374
-734.525
-715.079
-689.727
-658.455
-621.498
-579.346
-532.972
-483.442
-431.497
-377.868
-323.225
-267.66
-211.218
-153.82
-94.686
-33.556
28.537
90.258
149.943
205.126
253.73
293.882
322.936
338.939
342.618
335.258
317.471
291.788
258.114
215.893
170.722
126.478
87.304
58.073
35.019
14.076
-7.283
-32.807
-60.804
-89.084
-117.305
-144.193
-170.169
-195.647
-220.082
-243.455
-265.748
-287.1
-308.017
-328.942
-350.156
-372.05
-394.963
-418.832
-443.562
-469.07
-494.902
-521.56
-549.561
-577.727
-605.572
-630.85
-651.178
-668.322
-683.139
-699.282
-720.693
-745.955
-774.587
-801.836
-822.623
-836.497
-842.061
-843.142
-843.948
-845.558
-850.061
-855.384
-859.104
-860.798
-859.301
-855.304
-849.762
-842.533
-833.782
-823.454
-811.366
-797.689
-782.565
-766.003
-748.059
-728.786
-708.23
-686.453
-663.521
-639.492
-614.428
-588.427
-561.589
-534.008
-505.779
-476.997
-447.754
-418.15
-388.286
-358.259
-328.166
-298.108
-268.191
-238.526
-209.229
-180.416
-152.196
-124.677
-97.958
-72.135
-47.301
-23.54
-0.919
20.489
40.611
59.372
76.68
92.462
106.69
119.35
130.459
140.068
148.22
154.974
160.423
164.634
167.651
169.495
170.127
169.511
167.663
164.633
160.522
155.44
149.427
142.517
134.739
126.063
116.479
105.961
94.396
81.749
68.098
53.588
38.506
23.195
7.899
-7.187
-21.913
-36.169
-49.779
-62.561
-74.38
-85.039
-94.341
-102.063
-107.862
-111.491
-112.884
-112.071
-109.269
-104.804
-98.895
-91.73
-83.496
-74.323
-64.381
-53.849
-42.834
-31.48
-19.974
-8.548
2.456
12.731
22.135
30.608
38.205
45.077
51.285
56.854
61.843
66.268
70.104
73.285
75.699
77.258
77.945
77.822
77.01
75.575
73.652
71.542
69.258
66.563
63.418
59.579
55.444
52.355
49.896
46.66
40.18
26.151
4.385
-22.117
-48.282
-65.803
-71.602
-66.93
-56.803
-51.414
-56.561
-74.529
-102.921
-132.999
-158.932
-177.022
-187.029
-193.844
-200.582
-208.985
-219.613
-230.652
-241.208
-251.286
-260.78
-269.965
-278.874
-287.176
-294.727
-301.504
-307.454
-312.563
-316.836
-320.282
-322.95
-324.907
-326.186
-326.776
-326.654
-325.816
-324.286
-322.122
-319.43
-316.302
-312.783
-308.91
-304.689
-300.106
-295.225
-290.042
-284.417
-278.372
-272.052
-265.724
-260.001
-255.36
-251.718
-248.929
-246.763
-244.434
-241.187
-236.054
-227.254
-213.535
-194.853
-171.548
-144.693
-116.356
-88.135
-61.737
-39.846
-24.231
-15.25
-12.692
-15.042
-19.68
-24.804
-28.764
-29.275
-24.993
-15.53
-0.895
17.737
38.338
59.475
80.241
99.782
117.611
133.84
148.012
158.977
167.863
176.706
188.215
208.37
238.522
274.125
308.948
330.989
333.254
319.743
298.595
285.02
290.737
315.552
353.273
391.238
418.77
433.568
438.192
439.33
442.259
448.257
456.729
465.431
472.809
478.894
483.964
488.144
491.717
494.099
493.488
490.254
486.12
483.608
488.881
503.787
523.619
541.726
545.512
527.19
491.087
446.327
409.137
392.491
396.453
414.124
431.959
438.247
430.331
411.965
391.945
376.86
367.372
359.037
344.285
319.438
287.261
255.947
234.914
228.377
233.104
240.071
240.703
231.3
213.746
193.951
176.531
163.062
152.965
144.262
136.021
128.283
120.939
114.122
107.847
101.812
96.213
90.562
83.15
74.257
65.445
59.215
60.373
68.796
79.612
88.002
87.144
76.362
62.081
49.277
43.254
45.085
49.929
54.752
57.545
57.611
56.891
56.303
55.761
55.336
54.734
53.874
53.028
52.289
51.623
51.054
50.611
50.305
50.147
50.138
50.258
50.518
50.967
51.638
52.556
53.748
55.237
57.047
59.207
61.738
64.656
67.973
71.702
75.851
80.425
85.428
90.856
96.705
102.964
109.62
116.656
124.05
131.777
139.809
148.113
156.653
165.39
174.283
183.289
192.362
201.455
210.52
219.51
228.375
237.07
245.546
253.758
261.664
269.223
276.397
283.15
289.452
295.274
300.592
305.387
309.642
313.347
316.494
319.082
321.112
322.591
323.53
323.944
323.855
323.285
322.263
320.821
318.995
316.822
314.345
311.608
308.655
305.534
302.294
298.983
295.651
292.344
289.111
285.998
283.047
280.301
277.797
275.573
273.66
272.086
270.877
270.054
269.634
269.629
270.049
270.898
272.176
273.88
276.001
278.528
281.445
284.73
288.362
292.312
296.55
301.042
305.752
310.641
315.667
320.789
325.961
331.14
336.279
341.333
346.26
351.012
355.547
359.822
363.797
367.437
370.711
373.582
376.018
378.003
379.52
380.557
381.106
381.149
380.663
379.658
378.145
376.095
373.49
370.321
366.574
362.294
357.546
352.319
346.598
340.549
334.357
327.986
321.484
314.893
307.947
301.531
296.469
291.613
286.621
279.403
267.493
253.771
240.147
229.335
225.218
224.76
225.229
224.638
219.846
212.894
206.624
203.229
203.848
206.129
206.577
200.701
188.49
174.773
164.448
164.027
174.043
188.171
201.48
208.692
208.685
206.169
204.081
204.36
207.668
212.032
216.485
221.064
225.65
230.483
235.605
240.704
245.648
250.438
255.024
259.35
263.383
267.095
270.469
273.513
276.209
278.503
280.362
281.762
282.68
283.1
283.006
282.379
281.213
279.506
277.261
274.482
271.18
267.365
263.055
258.27
253.033
247.372
241.315
234.895
228.147
221.109
213.819
206.318
198.646
190.845
182.958
175.026
167.09
159.189
151.364
143.65
136.084
128.7
121.531
114.604
107.946
101.582
95.531
89.811
84.434
79.409
74.741
70.434
66.486
62.892
59.644
56.73
54.139
51.854
49.858
48.131
46.649
45.387
44.319
43.417
42.654
42.001
41.428
40.908
40.412
39.915
39.391
38.819
38.174
37.437
36.591
35.62
34.512
33.257
31.846
30.277
28.55
26.67
24.646
22.487
20.211
17.841
15.403
12.921
10.416
7.905
5.41
2.955
0.569
-1.727
-3.907
-5.942
-7.791
-9.404
-10.73
-11.731
-12.374
-12.639
-12.501
-11.927
-10.882
-9.336
-7.266
-4.649
-1.45
2.385
6.906
12.128
18.015
24.495
31.505
38.998
46.932
55.264
63.918
72.821
81.919
91.172
100.554
110.044
119.581
129.084
138.491
147.723
156.82
165.954
175.113
184.173
192.926
200.93
207.91
213.988
219.196
223.512
227.406
231.404
236.303
243.661
254.526
268.83
286.15
305.447
324.878
343.005
358.219
367.958
370.452
365.295
352.768
334.462
312.869
289.639
266.287
244.853
226.598
212.052
201.381
193.619
187.176
181.183
175.02
168.046
160.161
151.309
141.362
130.634
119.653
108.686
97.91
87.42
77.072
66.802
56.651
46.591
36.601
26.677
16.783
6.882
-3.027
-12.937
-22.814
-32.593
-42.241
-51.741
-61.072
-70.207
-79.105
-87.743
-96.142
-104.355
-112.437
-120.424
-128.334
-136.177
-143.966
-151.722
-159.468
-167.221
-174.99
-182.784
-190.619
-198.515
-206.495
-214.57
-222.74
-230.992
-239.318
-247.706
-256.15
-264.635
-273.145
-281.663
-290.173
-298.665
-307.122
-315.529
-323.862
-332.099
-340.215
-348.187
-355.99
-363.598
-370.986
-378.13
-385.005
-391.592
-397.87
-403.82
-409.424
-414.669
-419.54
-424.029
-428.125
-431.825
-435.125
-438.026
-440.531
-442.649
-444.389
-445.765
-446.792
-447.489
-447.878
-447.983
-447.829
-447.444
-446.855
-446.095
-445.197
-444.197
-443.129
-442.031
-440.942
-439.898
-438.939
-438.104
-437.429
-436.95
-436.702
-436.72
-437.036
-437.679
-438.679
-440.059
-441.843
-444.049
-446.695
-449.791
-453.346
-457.364
-461.844
-466.783
-472.173
-478.004
-484.258
-490.919
-497.963
-505.364
-513.093
-521.119
-529.406
-537.916
-546.606
-555.434
-564.357
-573.335
-582.323
-591.275
-600.141
-608.873
-617.431
-625.768
-633.829
-641.544
-648.85
-655.698
-662.065
-667.933
-673.259
-678.017
-682.229
-685.956
-689.261
-692.164
-694.615
-696.555
-698.016
-698.966
-699.176
-698.433
-696.693
-694.039
-690.771
-686.424
-679.536
-669.375
-656.841
-645.887
-642.164
-648.409
-662.191
-675.193
-677.978
-666.133
-642.439
-616.362
-596.969
-588.194
-588.523
-591.896
-593.547
-591.985
-587.722
-582.85
-578.503
-574.565
-570.888
-567.27
-563.756
-560.604
-557.884
-555.548
-553.583
-551.973
-550.677
-549.63
-548.755
-547.987
-547.271
-546.584
-545.889
-545.132
-544.296
-543.371
-542.32
-541.117
-539.742
-538.158
-536.342
-534.276
-531.884
-529.109
-525.923
-522.304
-518.275
-513.877
-509.18
-504.268
-499.165
-493.878
-488.368
-482.533
-476.31
-469.568
-461.95
-453.276
-443.71
-433.371
-422.732
-411.658
-398.673
-383.313
-366.745
-352.688
-347.795
-355.996
-374.514
-393.685
-399.344
-381.705
-342.646
-295.037
-257.522
-243.273
-252.976
-277.866
-303.281
-320.377
-330.226
-335.075
-339.329
-341.131
-330.981
-306.635
-271.475
-237.074
-222.001
-235.43
-274.414
-325.535
-368.805
-389.722
-385.017
-360.278
-325.922
-292.052
-264.545
-246.676
-239.975
-244.074
-258.417
-279.91
-303.79
-325.713
-338.156
-335.31
-315.653
-279.586
-236.79
-199.962
-176.445
-171.205
-178.747
-187.437
-190.47
-182.64
-164.935
-143.675
-121.994
-101.957
-84.082
-66.439
-48.463
-30.402
-12.245
5.615
23.024
40.192
57.159
73.852
90.256
106.33
121.963
137.049
151.534
165.338
178.41
190.749
202.289
212.946
222.72
231.641
239.568
246.35
252.079
256.75
260.348
263.217
264.518
263.444
261.243
258.327
256.965
259.865
264.158
267.956
268.418
261.618
251.171
240.15
230.687
226.255
224.501
223.041
221.4
218.146
214.217
210.792
207.715
205.181
203.158
201.461
200.271
199.732
199.825
200.554
201.937
203.97
206.633
209.906
213.744
218.089
222.915
228.189
233.858
239.867
246.158
252.665
259.325
266.072
272.833
279.535
286.105
292.469
298.557
304.3
309.631
314.486
318.807
322.54
325.635
328.049
329.747
330.696
330.876
330.269
328.867
326.67
323.683
319.923
315.41
310.175
304.255
297.694
290.545
282.864
274.715
266.168
257.296
248.178
238.895
229.533
220.178
210.919
201.846
193.048
184.614
176.629
169.177
162.341
156.197
150.817
146.269
142.614
139.908
138.199
137.531
137.936
139.444
142.073
145.836
150.736
156.77
163.927
172.186
181.523
191.902
203.283
215.62
228.858
242.939
257.8
273.372
289.582
306.355
323.614
341.277
359.264
377.491
395.877
414.341
432.801
451.179
469.399
487.388
505.076
522.396
539.288
555.694
571.561
586.843
601.495
615.483
628.774
641.341
653.166
664.233
674.531
684.057
692.812
700.8
708.032
714.521
720.286
725.346
729.727
733.456
736.56
739.072
741.024
742.449
743.381
743.854
743.902
743.559
742.857
741.828
740.499
738.901
737.057
734.993
732.729
730.285
727.676
724.918
722.022
718.995
715.846
712.576
709.188
705.681
702.051
698.294
694.403
690.369
686.183
681.834
677.31
672.6
667.69
662.566
657.215
651.625
645.781
639.672
633.286
626.613
619.642
612.366
604.776
596.868
588.637
580.08
571.195
561.983
552.445
542.585
532.407
521.917
511.124
500.034
488.66
477.01
465.098
452.935
440.533
427.906
415.069
402.036
388.822
375.443
361.913
348.249
334.467
320.581
306.609
292.564
278.461
264.316
250.142
235.956
221.77
207.6
193.458
179.359
165.316
151.34
137.444
123.639
109.936
96.344
82.875
69.538
56.347
43.311
30.442
17.751
5.251
-7.046
-19.13
-30.989
-42.614
-53.995
-65.123
-75.987
-86.578
-96.886
-106.901
-116.619
-126.033
-135.137
-143.927
-152.395
-160.54
-168.371
-175.885
-183.064
-189.897
-196.371
-202.488
-208.275
-213.738
-218.85
-223.638
-228.168
-232.494
-236.677
-240.734
-244.605
-248.282
-251.861
-255.276
-258.246
-260.724
-262.81
-264.48
-266.056
-266.975
-265.44
-261.848
-257.886
-256.3
-262.259
-275.486
-290.82
-303.121
-305.082
-296.203
-283.405
-272.038
-267.874
-271.954
-279.11
-286.164
-290.962
-292.84
-293.915
-295.163
-296.515
-298.03
-299.355
-300.36
-301.303
-302.28
-303.278
-304.334
-305.483
-306.741
-308.134
-309.695
-311.408
-313.234
-315.125
-317.005
-318.815
-320.552
-322.266
-324.016
-325.832
-327.672
-329.437
-331.064
-332.492
-333.598
-334.198
-334.038
-332.918
-330.828
-327.9
-324.274
-320.054
-315.261
-309.892
-304.044
-297.844
-291.434
-284.97
-278.483
-272.078
-266.137
-260.947
-256.712
-253.635
-251.53
-250.269
-250.169
-251.24
-253.153
-256.039
-260.12
-265.597
-273.117
-282.442
-292.268
-301.866
-310.807
-318.109
-322.72
-323.313
-318.182
-307.241
-291.919
-273.126
-251.508
-227.834
-202.698
-177.237
-153.102
-130.706
-109.27
-88.281
-67.459
-46.815
-26.856
-7.768
10.797
28.819
45.827
61.469
75.45
87.726
98.683
108.685
117.836
126.225
133.941
141.03
147.627
153.86
159.75
165.338
170.664
175.756
180.689
185.532
190.29
194.924
199.342
203.398
207.008
210.145
212.795
214.972
216.691
217.96
218.823
219.343
219.565
219.521
219.227
218.686
217.923
216.976
215.891
214.721
213.509
212.289
211.091
209.941
208.856
207.848
206.916
206.048
205.238
204.48
203.773
203.116
202.506
201.935
201.399
200.891
200.403
199.923
199.435
198.922
198.368
197.753
197.062
196.274
195.372
194.341
193.163
191.824
190.307
188.597
186.68
184.541
182.17
179.554
176.684
173.553
170.157
166.492
162.56
158.363
153.906
149.196
144.24
139.048
133.63
128.001
122.173
116.161
109.981
103.652
97.192
90.622
83.963
77.238
70.468
63.677
56.89
50.129
43.421
36.79
30.26
23.857
17.607
11.534
5.663
0.018
-5.38
-10.507
-15.346
-19.875
-24.078
-27.942
-31.457
-34.617
-37.415
-39.85
-41.918
-43.621
-44.97
-45.965
-46.598
-46.867
-46.776
-46.342
-45.6
-44.583
-43.306
-41.83
-40.262
-38.684
-37.153
-35.711
-34.351
-33.071
-31.93
-30.846
-29.514
-27.905
-26.24
-24.559
-23.128
-21.533
-18.295
-13.863
-9.908
-9.245
-16.817
-33.138
-54.933
-76.622
-88.945
-88.215
-75.844
-57.546
-44.911
-44.834
-60.095
-88.071
-118.911
-145.914
-164.85
-175.457
-183.33
-192.063
-203.664
-218.77
-235.292
-252.172
-269.381
-286.771
-304.63
-322.97
-341.383
-359.663
-377.734
-395.489
-412.853
-429.764
-446.155
-461.973
-477.193
-491.759
-505.583
-518.592
-530.728
-541.926
-552.131
-561.304
-569.401
-576.391
-582.254
-586.959
-590.473
-592.796
-593.934
-593.855
-592.544
-589.994
-586.196
-581.195
-575.066
-567.819
-559.446
-550.112
-540.01
-529.105
-517.461
-505.164
-491.967
-478.76
-466.41
-453.827
-440.728
-425.066
-404.374
-381.516
-358.418
-337.909
-323.865
-312.972
-302.411
-290.251
-273.282
-253.847
-234.332
-215.321
-198.277
-182.37
-166.584
-151.207
-136.17
-121.615
-107.771
-94.427
-81.474
-69.036
-57.009
-45.072
-33.171
-21.391
-9.721
1.468
12.873
26.339
41.257
55.95
67.419
70.346
65.583
58.37
53.989
60.091
76.799
97.134
115.609
126.231
128.16
127.194
128.121
132.939
140.532
146.212
144.288
134.905
122.889
113.375
113.24
122.886
135.733
146.781
150.655
146.203
138.294
129.993
123.339
119.093
115.309
111.032
106.351
101.21
95.92
90.598
84.998
79.044
72.811
66.342
59.666
52.839
45.904
38.891
31.868
24.909
18.005
11.118
4.235
-2.669
-9.576
-16.39
-23.071
-29.676
-36.114
-42.082
-47.491
-52.416
-56.81
-60.949
-64.324
-65.16
-63.715
-61.658
-61.555
-68.414
-82.248
-97.956
-110.566
-113
-104.386
-91.523
-79.698
-74.49
-77.227
-82.872
-88.228
-91.245
-91.158
-90.025
-88.87
-87.613
-86.349
-84.784
-82.827
-80.767
-78.703
-76.591
-74.442
-72.276
-70.084
-67.858
-65.576
-63.192
-60.691
-58.095
-55.412
-52.639
-49.777
-46.821
-43.772
-40.635
-37.41
-34.093
-30.682
-27.176
-23.576
-19.884
-16.102
-12.236
-8.289
-4.27
-0.186
3.951
8.132
12.342
16.567
20.791
24.998
29.169
33.286
37.33
41.28
45.117
48.82
52.369
55.743
58.923
61.889
64.623
67.106
69.32
71.25
72.878
74.192
75.179
75.828
76.131
76.08
75.671
74.902
73.775
72.292
70.459
68.287
65.786
62.971
59.859
56.469
52.823
48.944
44.857
40.591
36.172
31.631
26.997
22.301
17.574
12.848
8.153
3.521
-1.018
-5.433
-9.695
-13.775
-17.646
-21.282
-24.659
-27.752
-30.542
-33.01
-35.138
-36.914
-38.324
-39.362
-40.02
-40.295
-40.188
-39.7
-38.838
-37.608
-36.022
-34.092
-31.833
-29.261
-26.396
-23.257
-19.866
-16.247
-12.423
-8.421
-4.266
0.015
4.392
8.837
13.321
17.813
22.282
26.698
31.027
35.24
39.302
43.184
46.853
50.278
53.428
56.274
58.786
60.937
62.699
64.046
64.955
65.401
65.363
64.819
63.751
62.141
59.971
57.228
53.898
49.97
45.433
40.281
34.507
28.109
21.085
13.438
5.172
-3.705
-13.182
-23.246
-33.878
-45.058
-56.762
-68.962
-81.627
-94.722
-108.211
-122.054
-136.207
-150.625
-165.26
-180.06
-194.974
-209.947
-224.922
-239.841
-254.645
-269.275
-283.67
-297.767
-311.507
-324.828
-337.67
-349.972
-361.678
-372.729
-383.073
-392.657
-401.433
-409.356
-416.384
-422.481
-427.613
-431.754
-434.879
-436.972
-438.019
-438.012
-436.95
-434.835
-431.676
-427.485
-422.281
-416.087
-408.931
-400.845
-391.865
-382.032
-371.391
-359.988
-347.876
-335.107
-321.737
-307.826
-293.434
-278.622
-263.452
-247.987
-232.29
-216.423
-200.448
-184.422
-168.404
-152.449
-136.608
-120.93
-105.461
-90.242
-75.31
-60.7
-46.44
-32.555
-19.064
-5.985
6.673
18.903
30.7
42.069
53.013
63.543
73.673
83.418
92.801
101.845
110.577
119.028
127.229
135.214
143.021
150.687
158.25
165.749
173.225
180.715
188.258
195.89
203.648
211.565
219.672
227.997
236.567
245.404
254.528
263.953
273.693
283.754
294.143
304.861
315.904
327.268
338.942
350.913
363.164
375.675
388.421
401.374
414.504
427.775
441.149
454.586
468.044
481.476
494.836
508.076
521.144
533.991
546.565
558.814
570.686
582.131
593.098
603.54
613.41
622.664
631.261
639.163
646.333
652.737
658.347
663.134
667.072
670.139
672.315
673.585
673.937
673.359
671.848
669.403
666.026
661.727
656.517
650.411
643.426
635.583
626.907
617.426
607.171
596.176
584.476
572.111
559.124
545.559
531.463
516.879
501.855
486.438
470.673
454.609
438.29
421.764
405.076
388.277
371.416
354.544
337.713
320.973
304.376
287.976
271.821
255.958
240.428
225.269
210.516
196.209
182.381
169.059
156.275
144.062
132.455
121.494
111.212
101.632
92.772
84.647
77.268
70.651
64.797
59.695
55.346
51.75
48.926
46.917
45.727
45.328
45.674
46.694
48.319
50.499
53.154
56.178
59.502
63.08
66.917
71.087
75.606
80.453
85.569
90.836
96.196
101.658
107.231
112.945
118.84
124.928
131.303
138.135
145.479
153.303
161.456
169.646
177.671
185.408
192.761
199.702
206.147
211.957
217.036
221.29
224.596
226.89
228.007
227.66
225.744
222.248
217.281
211.21
204.326
196.646
188.164
179.072
169.495
159.602
149.841
139.476
127.817
116.102
104.849
96.389
93.329
92.927
93.229
91.283
83.221
72.32
61.394
52.381
48.441
47.257
46.495
45.67
43.426
40.592
38.192
36.005
34.188
32.781
31.798
31.583
32.312
33.908
36.192
38.954
42.042
45.33
48.702
52.024
55.104
57.8
60.022
61.622
62.447
62.293
60.834
57.834
53.235
47.076
39.565
31.016
21.627
11.559
0.987
-9.956
-21.092
-32.229
-43.256
-54.044
-64.428
-74.215
-83.133
-90.983
-97.728
-103.419
-108.206
-112.306
-115.822
-118.783
-121.231
-123.138
-124.497
-125.331
-125.597
-125.239
-124.245
-122.636
-120.418
-117.544
-113.866
-109.148
-103.158
-95.678
-86.584
-75.856
-63.566
-49.9
-35.051
-19.215
-2.607
14.548
32.018
49.63
67.153
84.307
100.776
116.145
130.013
142.029
151.889
159.382
164.512
167.449
168.391
167.615
165.395
162.011
157.831
153.133
148.181
143.26
138.631
134.636
131.663
130.067
130.191
132.353
136.635
142.951
151.19
161.089
172.366
184.708
197.661
210.858
224.033
236.946
249.411
261.216
272.069
281.686
289.799
296.097
300.402
302.637
302.729
300.745
296.808
291.084
283.857
275.368
265.751
255.105
243.484
230.92
217.489
203.267
188.305
172.713
156.583
139.982
122.99
105.633
87.892
69.738
51.096
31.89
12.086
-8.319
-29.317
-50.838
-72.777
-95.036
-117.503
-140.074
-162.658
-185.151
-207.436
-229.434
-251.096
-272.369
-293.204
-313.5
-333.115
-351.929
-369.819
-386.718
-402.633
-417.536
-431.368
-444.126
-455.816
-466.471
-476.179
-484.885
-492.408
-498.596
-503.295
-506.425
-508
-508.001
-506.4
-503.167
-498.231
-491.578
-483.26
-473.244
-461.457
-447.824
-432.223
-414.733
-395.628
-375.137
-353.473
-330.807
-307.253
-282.978
-258.206
-233.116
-207.829
-182.442
-157.044
-131.816
-107.032
-82.983
-59.837
-37.57
-16.241
4.067
23.177
40.81
57.071
72.232
86.253
99.002
110.607
121.136
131.109
141.471
152.161
162.712
172.858
182.009
189.579
195.24
197.821
195.531
187.882
175.12
158.031
138.312
117.11
95.102
73.779
55.193
40.633
30.623
24.468
20.254
16.823
13.639
9.868
4.486
-3.534
-14.808
-28.808
-44.046
-59.507
-74.687
-89.247
-103.002
-115.479
-126.259
-135.477
-143.647
-151.186
-158.3
-165.001
-171.166
-176.798
-181.914
-186.416
-190.166
-192.983
-194.721
-195.266
-194.465
-192.203
-188.399
-183.01
-176.087
-167.731
-158.047
-147.164
-135.252
-122.524
-109.271
-95.834
-82.499
-69.575
-57.397
-46.372
-37.024
-29.815
-25.11
-23.156
-24.089
-27.989
-34.888
-44.77
-57.527
-72.998
-90.977
-111.205
-133.427
-157.341
-182.578
-208.643
-234.935
-260.859
-285.833
-309.395
-331.168
-350.796
-368.013
-382.619
-394.472
-403.469
-409.518
-412.54
-412.534
-409.6
-403.878
-395.629
-385.178
-372.867
-359.125
-344.335
-328.797
-312.822
-296.642
-280.359
-264.042
-247.721
-231.341
-214.89
-198.337
-181.458
-164.017
-145.907
-127.071
-107.698
-88.157
-68.487
-48.476
-27.963
-6.802
15.125
37.842
61.908
88.354
117.301
147.998
179.116
208.844
235.713
258.691
276.109
285.627
285.923
276.814
259.249
235.392
207.018
175.261
141.681
108.302
76.634
47.58
21.073
-4.206
-29.281
-54.542
-80.374
-106.997
-134.479
-163.021
-192.33
-221.386
-249.72
-277.363
-304.218
-330.839
-356.821
-380.042
-400.799
-420.781
-442.52
-471.377
-506.694
-542.055
-571.228
-585.513
-583.811
-573.857
-561.632
-553.503
-550.535
-546.411
-537.059
-519.899
-494.286
-463.105
-428.236
-390.347
-350.144
-307.838
-263.883
-219.204
-174.586
-130.569
-87.707
-46.633
-8.057
27.154
58.142
84.349
105.495
121.491
132.475
138.631
140.054
136.905
129.413
117.865
102.658
84.133
62.566
38.341
12.005
-15.743
-44.173
-72.824
-101.551
-130.308
-159.08
-187.801
-216.292
-244.467
-272.351
-299.969
-327.362
-354.512
-381.288
-407.649
-433.702
-459.562
-485.276
-510.628
-535.052
-557.96
-578.904
-597.543
-613.683
-627.121
-637.525
-644.619
-648.226
-648.176
-644.377
-636.689
-624.781
-608.384
-587.455
-562.231
-533.343
-501.562
-467.506
-431.69
-394.682
-357.222
-320.09
-283.824
-248.707
-214.903
-183.335
-155.788
-133.457
-116.119
-100.471
-81.558
-56.475
-26.134
2.139
18.414
15.185
-9.833
-49.629
-92.718
-127.732
-147.387
-153.569
-153.617
-157.12
-171.376
-197.343
-231.814
-269.189
-305.141
-338.42
-369.507
-399.967
-430.671
-461.458
-492.015
-521.941
-550.987
-579.069
-605.916
-631.099
-654.28
-675.166
-693.465
-708.923
-721.256
-730.17
-735.389
-736.604
-733.451
-725.589
-712.79
-694.972
-672.231
-644.847
-613.25
-578.031
-539.82
-499.163
-456.544
-412.413
-367.206
-321.36
-275.4
-229.992
-185.932
-144.186
-105.679
-71.087
-40.989
-15.877
4.072
18.942
29.028
34.95
37.18
35.659
30.34
21.163
7.68
-10.293
-32.932
-60.941
-94.497
-132.799
-174.771
-218.691
-261.963
-302.569
-338.515
-367.017
-386.076
-394.817
-392.942
-381.471
-362.6
-338.014
-309.431
-279.279
-249.286
-220.442
-193.422
-167.859
-142.701
-117.45
-91.74
-64.976
-37.101
-8.368
20.947
50.067
78.083
104.633
129.564
152.798
174.606
195.296
215.202
235.025
255.481
277.008
300.002
324.748
351.306
379.77
410.108
441.954
474.996
508.977
543.414
577.97
612.657
647.661
683.606
721.27
760.68
801.426
843.239
885.401
926.612
965.029
997.461
1020.448
1032.08
1031.311
1017.28
989.788
948.782
894.81
830.731
760.193
685.755
609.845
534.894
463.275
398.504
343.914
300.686
269.216
249.809
241.885
244.615
256.506
274.374
295.171
317.093
338.582
358.652
377.075
393.598
408.601
423.386
438.718
454.726
471.447
488.495
505.376
521.79
537.112
550.495
561.487
569.964
576.026
579.987
582.049
582.337
581.091
578.637
575.346
571.518
567.298
562.758
557.994
553.135
548.324
543.662
539.128
534.646
530.115
525.412
520.442
515.076
509.196
502.712
495.509
487.508
478.654
468.883
458.111
446.219
433.073
418.537
402.545
385.099
366.309
346.379
325.553
304.152
282.427
260.558
238.765
217.233
196.155
175.739
156.183
137.721
120.646
105.287
91.941
80.825
71.965
65.254
60.528
57.495
55.958
55.783
56.716
58.553
61.114
64.199
67.676
71.398
75.11
78.502
81.285
83.203
84.177
84.234
83.397
81.805
79.522
76.569
73.134
69.358
65.309
61.075
56.649
52.003
47.23
42.454
37.766
33.268
28.972
24.834
20.876
17.061
13.38
9.855
6.366
2.823
-0.792
-4.502
-8.273
-12.034
-15.791
-19.557
-23.292
-26.975
-30.559
-33.979
-37.229
-40.289
-43.13
-45.735
-48.025
-49.922
-51.384
-52.369
-52.847
-52.806
-52.209
-51.017
-49.236
-46.864
-43.898
-40.344
-36.187
-31.41
-26.014
-20.002
-13.385
-6.186
1.579
9.887
18.709
28.012
37.757
47.9
58.408
69.242
80.358
91.712
103.252
114.924
126.677
138.456
150.201
161.854
173.355
184.645
195.667
206.366
216.689
226.582
235.994
244.877
253.185
260.873
267.899
274.224
279.815
284.641
288.677
291.903
294.302
295.866
296.589
296.473
295.524
293.753
291.176
287.816
283.7
278.86
273.332
267.16
260.387
253.065
245.246
236.987
228.347
219.386
210.166
200.751
191.202
181.584
171.961
162.393
152.942
143.668
134.626
125.873
117.459
109.433
101.838
94.715
88.098
82.019
76.503
71.57
67.236
63.509
60.394
57.889
55.987
54.677
53.941
53.756
54.097
54.932
56.228
57.946
60.046
62.483
65.214
68.19
71.364
74.687
78.107
81.577
85.045
88.464
91.784
94.96
97.947
100.701
103.182
105.353
107.179
108.628
109.672
110.289
110.457
110.161
109.39
108.135
106.394
104.169
101.464
98.288
94.655
90.579
86.081
81.183
75.912
70.295
64.363
58.146
51.681
45.002
38.146
31.154
24.063
16.913
9.745
2.599
-4.482
-11.455
-18.278
-24.915
-31.328
-37.478
-43.331
-48.847
-53.995
-58.746
-63.072
-66.949
-70.35
-73.246
-75.617
-77.447
-78.721
-79.436
-79.579
-79.13
-78.081
-76.427
-74.171
-71.327
-67.905
-63.909
-59.351
-54.243
-48.615
-42.514
-35.982
-29.057
-21.778
-14.164
-6.276
1.798
9.971
18.147
26.282
34.396
42.466
50.445
58.274
65.824
73.082
80.19
87.106
93.648
99.623
104.7
108.855
112.498
115.777
118.595
121.152
123.736
126.883
131.587
138.181
146.222
155.359
165.144
174.828
183.765
190.695
193.669
191.602
183.892
171.209
155.995
139.243
121.171
101.114
76.334
49.03
25.443
11.051
12.405
28.505
50.815
72.521
86.727
91.216
89.562
84.038
76.696
68.889
60.214
50.956
41.802
33.335
26.413
21.473
18.467
17.085
16.684
16.843
17.425
18.363
19.718
21.498
23.648
26.189
29.204
32.723
36.734
41.17
45.892
50.806
55.863
61.019
66.254
71.533
76.8
82.012
87.131
92.122
96.954
101.597
106.015
110.177
114.058
117.636
120.898
123.825
126.395
128.582
130.359
131.703
132.599
133.033
132.996
132.48
131.477
129.987
128.009
125.547
122.604
119.187
115.301
110.956
106.163
100.935
95.289
89.241
82.808
76.01
68.866
61.398
53.629
45.582
37.282
28.754
20.027
11.128
2.086
-7.068
-16.304
-25.589
-34.891
-44.176
-53.41
-62.56
-71.59
-80.467
-89.158
-97.628
-105.844
-113.776
-121.39
-128.656
-135.545
-142.028
-148.076
-153.662
-158.76
-163.348
-167.403
-170.906
-173.838
-176.184
-177.931
-179.068
-179.588
-179.484
-178.753
-177.396
-175.414
-172.814
-169.604
-165.798
-161.409
-156.459
-150.971
-144.972
-138.492
-131.562
-124.219
-116.498
-108.438
-100.083
-91.475
-82.66
-73.685
-64.599
-55.455
-46.306
-37.206
-28.21
-19.37
-10.743
-2.383
5.656
13.318
20.552
27.307
33.528
39.163
44.163
48.476
52.056
54.855
56.826
57.929
58.13
57.401
55.715
53.049
49.384
44.705
39.005
32.274
24.501
15.672
5.778
-5.181
-17.197
-30.257
-44.344
-59.435
-75.505
-92.519
-110.426
-129.179
-148.74
-169.085
-190.197
-212.031
-234.5
-257.497
-280.923
-304.687
-328.696
-352.839
-376.976
-400.989
-424.809
-448.422
-471.826
-494.982
-517.803
-540.156
-561.911
-582.994
-603.398
-623.14
-642.187
-660.486
-678.017
-694.819
-711
-726.619
-741.583
-755.664
-768.648
-780.412
-790.919
-800.22
-808.289
-815.001
-820.207
-823.764
-825.639
-825.836
-824.295
-820.86
-815.305
-807.481
-797.478
-785.596
-772.071
-757.031
-740.521
-722.506
-703.139
-682.752
-661.626
-639.997
-618.003
-595.727
-573.368
-551.244
-529.702
-509.015
-489.253
-470.306
-452.171
-434.963
-418.836
-404.005
-390.455
-377.963
-366.408
-355.731
-345.93
-337.049
-329.018
-321.653
-314.805
-308.389
-302.4
-296.926
-291.941
-287.314
-282.913
-278.566
-274.26
-270.126
-266.203
-262.471
-258.892
-255.393
-251.961
-248.653
-245.454
-242.293
-239.092
-235.749
-232.226
-228.547
-224.722
-220.767
-216.643
-212.254
-207.547
-202.5
-197.091
-191.312
-185.145
-178.55
-171.534
-164.152
-156.448
-148.473
-140.266
-131.847
-123.252
-114.532
-105.739
-96.941
-88.201
-79.58
-71.147
-62.973
-55.13
-47.696
-40.736
-34.3
-28.441
-23.211
-18.659
-14.832
-11.772
-9.511
-8.08
-7.508
-7.814
-9.011
-11.105
-14.089
-17.953
-22.675
-28.229
-34.578
-41.681
-49.488
-57.945
-66.988
-76.549
-86.554
-96.922
-107.57
-118.407
-129.341
-140.274
-151.108
-161.743
-172.076
-182.007
-191.435
-200.261
-208.388
-215.721
-222.169
-227.647
-232.072
-235.368
-237.464
-238.297
-237.811
-235.959
-232.701
-228.01
-221.864
-214.254
-205.18
-194.652
-182.689
-169.322
-154.588
-138.536
-121.224
-102.718
-83.094
-62.435
-40.831
-18.381
4.813
28.639
52.984
77.728
102.75
127.923
153.122
178.217
203.081
227.583
251.598
274.998
297.664
319.474
340.317
360.082
378.665
395.971
411.91
426.4
439.37
450.755
460.499
468.558
474.895
479.485
482.31
483.362
482.64
480.153
475.919
469.968
462.341
453.085
442.254
429.908
416.116
400.955
384.503
366.846
348.066
328.25
307.492
285.894
263.565
240.616
217.155
193.281
169.088
144.671
120.13
95.561
71.057
46.706
22.595
-1.183
-24.527
-47.333
-69.512
-90.987
-111.706
-131.626
-150.69
-168.818
-185.902
-201.829
-216.528
-229.978
-242.18
-253.124
-262.771
-271.056
-277.996
-283.725
-288.275
-291.487
-292.98
-292.337
-289.459
-284.687
-278.474
-270.982
-262.414
-253.273
-244.564
-237.513
-232.643
-229.372
-226.524
-223.339
-219.305
-213.747
-205.469
-192.85
-175.078
-152.816
-127.716
-101.086
-73.724
-46.293
-19.694
4.698
25.991
44.452
61.222
77.285
93.145
109.009
125.022
141.649
159.283
177.809
196.701
215.446
233.768
251.611
269.055
286.061
302.516
318.386
333.712
348.559
362.961
376.885
390.245
402.973
415.045
426.458
437.229
447.367
456.874
465.752
474.007
481.65
488.697
495.169
501.084
506.465
511.335
515.721
519.656
523.174
526.306
529.074
531.499
533.598
535.392
536.905
538.159
539.174
539.967
540.554
540.95
541.17
541.225
541.123
540.869
540.467
539.919
539.225
538.383
537.39
536.239
534.921
533.426
531.739
529.847
527.73
525.371
522.747
519.836
516.614
513.056
509.137
504.829
500.108
494.946
489.318
483.199
476.564
469.392
461.662
453.355
444.454
434.945
424.817
414.06
402.671
390.645
377.984
364.693
350.779
336.254
321.131
305.429
289.17
272.378
255.083
237.316
219.114
200.515
181.562
162.301
142.78
123.05
103.167
83.187
63.167
43.169
23.253
3.482
-16.081
-35.373
-54.33
-72.891
-90.993
-108.578
-125.588
-141.967
-157.662
-172.623
-186.802
-200.153
-212.635
-224.208
-234.839
-244.496
-253.151
-260.781
-267.367
-272.895
-277.355
-280.738
-283.041
-284.261
-284.403
-283.475
-281.491
-278.474
-274.446
-269.437
-263.476
-256.599
-248.841
-240.238
-230.827
-220.64
-209.711
-198.08
-185.789
-172.891
-159.432
-145.453
-130.989
-116.069
-100.716
-84.959
-68.826
-52.339
-35.528
-18.424
-1.07
16.481
34.172
51.957
69.805
87.706
105.641
123.57
141.427
159.103
176.5
193.569
210.273
226.601
242.563
258.101
273.213
288.023
302.508
316.54
329.879
341.981
352.417
361.254
368.62
374.719
380.248
385.871
392.441
401.533
414.259
430.666
450.453
472.661
495.448
517.402
537.016
551.916
560.527
562.5
557.997
548.365
535.903
522.159
508.58
497.17
489.12
484.861
484.471
486.927
490.586
494.486
497.867
499.852
500.092
498.405
494.686
489.397
483.214
476.479
469.411
462.145
454.614
446.833
438.872
430.674
422.175
413.371
404.281
394.98
385.578
376.134
366.674
357.213
347.75
338.293
328.862
319.468
310.122
300.83
291.592
282.409
273.277
264.19
255.137
246.102
237.066
228.019
218.949
209.854
200.728
191.566
182.357
173.088
163.747
154.32
144.795
135.158
125.396
115.497
105.449
95.245
84.877
74.336
63.616
52.711
41.616
30.326
18.841
7.161
-4.714
-16.779
-29.029
-41.457
-54.053
-66.806
-79.703
-92.73
-105.872
-119.11
-132.426
-145.801
-159.212
-172.638
-186.054
-199.435
-212.755
-225.987
-239.103
-252.075
-264.873
-277.469
-289.836
-301.947
-313.774
-325.291
-336.472
-347.291
-357.724
-367.747
-377.335
-386.466
-395.119
-403.275
-410.92
-418.039
-424.622
-430.661
-436.148
-441.081
-445.457
-449.274
-452.534
-455.238
-457.391
-459.002
-460.081
-460.644
-460.707
-460.29
-459.414
-458.105
-456.39
-454.296
-451.85
-449.078
-446.012
-442.683
-439.125
-435.371
-431.458
-427.428
-423.323
-419.191
-415.075
-411.015
-407.053
-403.223
-399.559
-396.088
-392.833
-389.812
-387.052
-384.577
-382.418
-380.61
-379.185
-378.172
-377.605
-377.505
-377.889
-378.764
-380.122
-381.943
-384.219
-386.943
-390.125
-393.785
-397.923
-402.522
-407.567
-413.022
-418.823
-424.878
-431.043
-437.164
-443.131
-448.862
-454.308
-459.46
-464.295
-468.802
-472.982
-476.798
-480.231
-483.265
-485.856
-487.979
-489.65
-490.942
-492.037
-493.171
-494.489
-496.077
-497.971
-500.152
-502.683
-505.617
-508.861
-512.253
-515.544
-518.447
-520.786
-522.378
-522.705
-521.056
-517.017
-510.458
-501.632
-490.33
-475.232
-455.219
-430.928
-406.72
-388.64
-379.633
-377.303
-371.352
-348.737
-303.374
-236.463
-158.155
-84.327
-23.925
19.324
46.727
66.08
80.269
90.334
96.176
94.038
86.419
76.651
68.843
69.376
76.358
86.938
98.371
105.568
109.822
113.057
115.232
117.708
119.655
120.102
119.87
119.562
119.652
120.516
122.005
123.769
125.605
127.353
128.808
129.823
130.364
130.45
130.139
129.531
128.66
127.488
126.002
124.199
122.073
119.683
117.113
114.474
111.927
109.621
107.647
106.068
104.919
104.208
103.947
104.134
104.748
105.786
107.26
109.186
111.587
114.463
117.798
121.561
125.712
130.204
134.994
140.04
145.297
150.726
156.29
161.956
167.694
173.47
179.242
184.963
190.582
196.045
201.303
206.303
210.992
215.321
219.243
222.716
225.702
228.167
230.074
231.392
232.094
232.153
231.547
230.258
228.269
225.571
222.156
218.026
213.183
207.639
201.405
194.502
186.953
178.786
170.033
160.729
150.916
140.637
129.939
118.876
107.501
95.872
84.049
72.093
60.068
48.034
36.055
24.19
12.498
1.037
-10.138
-20.975
-31.423
-41.438
-50.974
-59.993
-68.46
-76.342
-83.615
-90.259
-96.257
-101.594
-106.263
-110.26
-113.591
-116.269
-118.307
-119.719
-120.532
-120.795
-120.554
-119.863
-118.767
-117.287
-115.471
-113.398
-111.101
-108.582
-105.855
-102.929
-99.857
-96.768
-93.732
-90.727
-87.888
-85.538
-83.77
-82.549
-81.95
-81.699
-82.42
-85.839
-91.53
-97.98
-102.552
-100.391
-92.02
-82.26
-75.985
-80.107
-94.739
-113.37
-130.982
-142.055
-145.84
-147.162
-148.885
-153.039
-160.096
-168.01
-175.883
-183.712
-191.384
-199.149
-207.013
-214.656
-221.954
-228.902
-235.444
-241.524
-247.111
-252.177
-256.714
-260.734
-264.223
-267.135
-269.445
-271.14
-272.209
-272.647
-272.453
-271.624
-270.166
-268.096
-265.431
-262.194
-258.411
-254.108
-249.319
-244.079
-238.426
-232.399
-226.04
-219.392
-212.499
-205.405
-198.155
-190.792
-183.36
-175.901
-168.457
-161.067
-153.77
-146.603
-139.598
-132.789
-126.203
-119.869
-113.81
-108.046
-102.594
-97.467
-92.677
-88.23
-84.13
-80.376
-76.965
-73.891
-71.145
-68.715
-66.587
-64.745
-63.171
-61.846
-60.749
-59.858
-59.152
-58.61
-58.209
-57.929
-57.747
-57.645
-57.603
-57.603
-57.628
-57.661
-57.688
-57.694
-57.669
-57.6
-57.48
-57.3
-57.054
-56.738
-56.35
-55.887
-55.352
-54.744
-54.067
-53.325
-52.523
-51.667
-50.763
-49.818
-48.838
-47.83
-46.8
-45.754
-44.696
-43.628
-42.553
-41.472
-40.384
-39.286
-38.175
-37.045
-35.892
-34.707
-33.482
-32.209
-30.877
-29.476
-27.995
-26.422
-24.748
-22.959
-21.046
-18.999
-16.808
-14.463
-11.958
-9.285
-6.44
-3.417
-0.214
3.169
6.731
10.469
14.378
18.449
22.671
27.03
31.512
36.096
40.762
45.486
50.242
55.002
59.738
64.417
69.006
73.472
77.782
81.899
85.79
89.42
92.757
95.769
98.425
100.699
102.564
103.997
104.978
105.489
105.516
105.047
104.075
102.596
100.61
98.119
95.132
91.659
87.718
83.328
78.513
73.293
67.698
61.758
55.508
48.99
42.244
35.302
28.212
21.038
13.837
6.67
-0.415
-7.4
-14.242
-20.872
-27.27
-33.456
-39.438
-45.233
-50.816
-56.084
-60.998
-65.622
-69.849
-73.382
-76.172
-78.296
-79.72
-80.782
-80.845
-78.149
-73.229
-67.683
-64.347
-68.339
-79.016
-91.392
-100.374
-98.735
-86.542
-70.592
-56.116
-48.909
-49.618
-53.189
-56.654
-57.847
-56.302
-54.126
-52.193
-50.468
-49.019
-47.528
-45.94
-44.529
-43.358
-42.368
-41.545
-40.879
-40.326
-39.843
-39.365
-38.802
-38.098
-37.229
-36.152
-34.814
-33.164
-31.149
-28.717
-25.824
-22.418
-18.447
-13.862
-8.618
-2.671
4.018
11.483
19.758
28.868
38.836
49.68
61.412
74.037
87.554
101.958
117.234
133.362
150.316
168.064
186.564
205.771
225.634
246.096
267.097
288.571
310.444
332.638
355.072
377.664
400.332
422.992
445.553
467.932
490.062
511.885
533.341
554.356
574.841
594.698
613.852
632.203
649.594
665.851
680.842
694.485
706.769
717.73
727.349
735.735
743.282
750.289
756.759
762.572
767.429
771.813
777.181
784.101
791.286
794.186
786.839
765.786
732.343
695.657
666.95
654.962
663.811
685.928
710.319
726.778
725.759
708.4
679.254
642.001
603.16
564.864
529.327
502.797
488.465
487.128
495.332
503.272
503.046
491.718
471.07
447.717
426.963
410.563
398.176
387.773
378.217
369.676
362.378
356.54
352.062
348.646
346.211
344.805
344.456
345.18
346.994
349.934
354.056
359.391
365.923
373.6
382.373
392.202
403.037
414.823
427.491
440.969
455.182
470.056
485.51
501.457
517.807
534.464
551.333
568.314
585.305
602.203
618.905
635.308
651.309
666.808
681.705
695.906
709.319
721.857
733.439
743.985
753.424
761.69
768.72
774.462
778.869
781.902
783.53
783.732
782.497
779.82
775.706
770.169
763.229
754.914
745.259
734.308
722.11
708.721
694.204
678.629
662.072
644.615
626.341
607.339
587.699
567.513
546.874
525.873
504.597
483.133
461.563
439.971
418.438
397.047
375.874
354.995
334.486
314.418
294.858
275.863
257.478
239.736
222.661
206.268
190.566
175.555
161.234
147.601
134.648
122.372
110.77
99.827
89.519
79.804
70.622
61.919
53.652
45.787
38.312
31.236
24.587
18.399
12.715
7.555
2.92
-1.227
-4.975
-8.419
-11.671
-14.796
-17.798
-20.693
-23.506
-26.288
-29.119
-32.12
-35.425
-39.192
-43.608
-48.82
-54.938
-61.969
-69.793
-78.219
-86.985
-95.937
-105.036
-114.239
-123.494
-132.654
-141.487
-149.769
-157.295
-163.846
-169.152
-172.846
-174.435
-173.772
-171.149
-167.004
-161.956
-156.186
-149.453
-142.073
-134.749
-127.77
-120.979
-113.654
-105.481
-97.945
-92.813
-90.873
-89.139
-81.513
-64.377
-36.386
-3.922
19.808
24.524
1.114
-49.436
-113.781
-176.002
-217.998
-232.057
-222.726
-200.876
-182.146
-172.561
-173.422
-183.799
-197.731
-217.675
-243.542
-271.46
-301.715
-327.009
-343.93
-354.345
-356.866
-357.105
-359.185
-363.495
-372.707
-384.408
-395.809
-406.34
-414.254
-419.967
-424.49
-427.684
-429.746
-430.636
-430.119
-428.333
-425.569
-422.121
-418.158
-413.697
-408.462
-401.844
-393.652
-384.192
-373.653
-362.053
-349.464
-336.188
-323.409
-313.29
-306.406
-301.165
-296.14
-291.035
-288.518
-293.035
-305.055
-318.367
-322.664
-308.347
-270.513
-213.264
-145.832
-76.631
-15.604
31.654
63.378
77.404
77.564
66.7
46.021
18.998
-14.55
-52.519
-90.918
-128.559
-163.032
-192.631
-217.797
-238.293
-254.579
-269.251
-284.177
-300.053
-317.564
-336.704
-357.078
-378.986
-402.527
-426.541
-450.226
-473.389
-495.813
-517.751
-539.465
-560.656
-581.09
-601.059
-620.777
-640.377
-659.994
-679.449
-698.584
-717.443
-736.055
-754.359
-772.266
-789.603
-806.185
-821.96
-836.925
-851.078
-864.441
-877.013
-888.794
-899.821
-910.141
-919.803
-928.845
-937.298
-945.199
-952.584
-959.498
-965.984
-972.071
-977.753
-982.992
-987.743
-991.951
-995.585
-998.629
-1001.087
-1002.99
-1004.384
-1005.334
-1005.871
-1005.985
-1005.67
-1004.925
-1003.775
-1002.275
-1000.515
-998.615
-996.7
-994.903
-993.322
-992.012
-990.951
-990.037
-989.109
-987.932
-986.354
-984.311
-981.714
-978.469
-974.419
-969.339
-963.005
-955.199
-945.688
-934.243
-920.659
-904.754
-886.476
-865.891
-843.155
-818.549
-792.235
-764.248
-734.713
-703.798
-671.787
-639.109
-606.121
-573.109
-540.394
-508.296
-477.145
-447.293
-418.956
-392.223
-367.141
-343.663
-321.868
-301.988
-284.108
-268.22
-254.19
-241.709
-230.573
-220.699
-211.946
-204.168
-197.205
-190.854
-185.023
-179.727
-174.95
-170.687
-166.831
-163.151
-159.535
-155.973
-152.527
-149.382
-146.635
-144.285
-142.37
-140.939
-140.026
-139.676
-139.861
-140.467
-141.434
-142.73
-144.362
-146.408
-148.875
-151.714
-154.848
-158.16
-161.559
-164.998
-168.406
-171.701
-174.825
-177.728
-180.397
-182.862
-185.126
-187.172
-188.976
-190.502
-191.729
-192.656
-193.285
-193.62
-193.668
-193.435
-192.938
-192.2
-191.237
-190.059
-188.67
-187.062
-185.236
-183.197
-180.95
-178.499
-175.851
-173.01
-169.985
-166.789
-163.431
-159.916
-156.249
-152.432
-148.467
-144.359
-140.109
-135.721
-131.196
-126.538
-121.751
-116.838
-111.801
-106.644
-101.368
-95.975
-90.467
-84.847
-79.115
-73.273
-67.324
-61.27
-55.117
-48.87
-42.532
-36.112
-29.617
-23.056
-16.439
-9.777
-3.079
3.641
10.371
17.095
23.796
30.456
37.056
43.577
49.995
56.288
62.432
68.404
74.179
79.733
85.04
90.076
94.813
99.227
103.292
106.982
110.274
113.144
115.569
117.527
119.001
119.972
120.425
120.347
119.728
118.559
116.837
114.559
111.726
108.344
104.421
99.969
95.003
89.544
83.614
77.239
70.449
63.278
55.762
47.938
39.85
31.54
23.055
14.444
5.756
-2.957
-11.644
-20.25
-28.723
-37.01
-45.059
-52.82
-60.241
-67.277
-73.883
-80.015
-85.635
-90.708
-95.202
-99.09
-102.348
-104.959
-106.911
-108.194
-108.808
-108.754
-108.04
-106.679
-104.691
-102.096
-98.924
-95.206
-90.979
-86.284
-81.164
-75.668
-69.847
-63.753
-57.443
-50.975
-44.405
-37.794
-31.201
-24.685
-18.304
-12.115
-6.173
-0.531
4.76
9.653
14.103
18.071
21.522
24.423
26.749
28.478
29.594
30.086
29.948
29.179
27.783
25.768
23.147
19.939
16.167
11.857
7.042
1.756
-3.961
-10.068
-16.52
-23.27
-30.269
-37.467
-44.812
-52.252
-59.734
-67.203
-74.607
-81.892
-89.007
-95.9
-102.522
-108.827
-114.77
-120.312
-125.415
-130.044
-134.167
-137.757
-140.789
-143.242
-145.095
-146.333
-146.942
-146.914
-146.243
-144.927
-142.969
-140.375
-137.153
-133.314
-128.872
-123.845
-118.25
-112.107
-105.438
-98.268
-90.623
-82.532
-74.026
-65.135
-55.894
-46.335
-36.494
-26.4
-16.085
-5.581
5.087
15.891
26.805
37.807
48.876
59.984
71.108
82.22
93.292
104.299
115.218
126.021
136.69
147.21
157.571
167.773
177.819
187.706
197.433
206.996
216.389
225.613
234.663
243.522
252.187
260.66
268.954
277.109
285.149
293.066
300.842
308.436
315.782
322.828
329.521
335.776
341.54
346.797
351.559
355.907
359.929
363.664
367.124
370.27
373.061
375.533
377.734
379.722
381.619
383.528
385.571
387.963
390.842
394.23
398.08
402.193
406.315
410.29
414.013
417.423
420.499
423.144
425.255
426.77
427.559
427.491
426.398
423.987
420.052
414.569
407.617
399.455
390.455
380.876
370.931
360.834
350.732
340.81
331.255
322.174
313.707
306.036
299.387
294.095
290.45
288.583
288.542
290.249
293.522
298.259
304.381
311.776
320.393
330.18
341.089
353.146
366.375
380.745
396.188
412.573
429.764
447.697
466.338
485.691
505.799
526.67
548.296
570.689
593.828
617.664
642.136
667.14
692.549
718.263
744.191
770.255
796.384
822.492
848.483
874.263
899.731
924.789
949.34
973.281
996.515
1018.96
1040.538
1061.188
1080.857
1099.49
1117.037
1133.452
1148.691
1162.712
1175.479
1186.957
1197.115
1205.927
1213.376
1219.45
1224.143
1227.455
1229.387
1229.949
1229.154
1227.018
1223.561
1218.806
1212.78
1205.512
1197.035
1187.382
1176.593
1164.705
1151.76
1137.805
1122.882
1107.039
1090.324
1072.787
1054.476
1035.443
1015.738
995.414
974.522
953.116
931.252
908.983
886.367
863.458
840.311
816.982
793.524
769.991
746.436
722.912
699.469
676.159
653.033
630.138
607.526
585.242
563.333
541.845
520.821
500.301
480.326
460.933
442.156
424.029
406.582
389.84
373.829
358.569
344.077
330.367
317.45
305.332
294.017
283.504
273.788
264.861
256.711
249.323
242.678
236.753
231.521
226.953
223.013
219.667
216.872
214.586
212.761
211.349
210.298
209.554
209.06
208.761
208.597
208.51
208.441
208.331
208.122
207.758
207.184
206.347
205.197
203.685
201.768
199.404
196.557
193.193
189.282
184.802
179.731
174.056
167.766
160.857
153.33
145.192
136.455
127.136
117.259
106.853
95.952
84.595
72.829
60.701
48.268
35.586
22.717
9.728
-3.315
-16.342
-29.281
-42.061
-54.608
-66.852
-78.719
-90.142
-101.052
-111.384
-121.076
-130.069
-138.308
-145.743
-152.328
-158.024
-162.795
-166.611
-169.451
-171.297
-172.14
-171.976
-170.809
-168.648
-165.513
-161.425
-156.418
-150.527
-143.797
-136.279
-128.026
-119.099
-109.565
-99.492
-88.954
-78.025
-66.785
-55.313
-43.69
-31.997
-20.315
-8.724
2.698
13.874
24.731
35.199
45.21
54.703
63.62
71.908
79.52
86.414
92.555
97.914
102.467
106.199
109.099
111.166
112.402
112.817
112.427
111.256
109.331
106.686
103.36
99.397
94.844
89.755
84.183
78.188
71.829
65.168
58.269
51.193
44.006
36.77
29.546
22.395
15.376
8.543
1.95
-4.353
-10.321
-15.911
-21.086
-25.812
-30.059
-33.805
-37.028
-39.713
-41.851
-43.434
-44.462
-44.937
-44.866
-44.259
-43.131
-41.501
-39.388
-36.817
-33.815
-30.41
-26.633
-22.516
-18.092
-13.395
-8.459
-3.319
1.99
7.435
12.983
18.601
24.259
29.928
35.58
41.19
46.736
52.196
57.551
62.787
67.887
72.841
77.639
82.272
86.734
91.02
95.127
99.054
102.799
106.363
109.747
112.951
115.979
118.832
121.512
124.022
126.363
128.537
130.545
132.388
134.066
135.577
136.922
138.096
139.096
139.919
140.558
141.006
141.255
141.296
141.119
140.711
140.061
139.155
137.982
136.527
134.777
132.718
130.34
127.628
124.573
121.164
117.392
113.25
108.731
103.832
98.55
92.884
86.835
80.407
73.604
66.433
58.902
51.02
42.8
34.255
25.4
16.251
6.827
-2.852
-12.765
-22.888
-33.198
-43.668
-54.273
-64.985
-75.777
-86.621
-97.489
-108.355
-119.193
-129.975
-140.678
-151.278
-161.754
-172.085
-182.254
-192.245
-202.045
-211.642
-221.029
-230.197
-239.144
-247.868
-256.369
-264.65
-272.716
-280.575
-288.236
-295.711
-303.015
-310.165
-317.179
-324.078
-330.887
-337.628
-344.329
-351.018
-357.724
-364.477
-371.306
-378.244
-385.32
-392.565
-400.008
-407.679
-415.606
-423.813
-432.326
-441.166
-450.353
-459.905
-469.835
-480.157
-490.879
-502.008
-513.547
-525.498
-537.857
-550.618
-563.773
-577.31
-591.211
-605.457
-620.025
-634.888
-650.017
-665.378
-680.935
-696.65
-712.479
-728.381
-744.308
-760.215
-776.051
-791.769
-807.318
-822.649
-837.713
-852.461
-866.847
-880.825
-894.352
-907.386
-919.888
-931.822
-943.154
-953.854
-963.894
-973.25
-981.901
-989.832
-997.028
-1003.481
-1009.188
-1014.146
-1018.362
-1021.843
-1024.601
-1026.653
-1028.02
-1028.726
-1028.798
-1028.266
-1027.165
-1025.528
-1023.394
-1020.802
-1017.789
-1014.396
-1010.662
-1006.627
-1002.327
-997.8
-993.08
-988.2
-983.189
-978.076
-972.885
-967.638
-962.355
-957.05
-951.736
-946.421
-941.11
-935.804
-930.501
-925.193
-919.872
-914.522
-909.127
-903.666
-898.115
-892.447
-886.635
-880.647
-874.45
-868.012
-861.297
-854.271
-846.9
-839.152
-830.995
-822.4
-813.339
-803.789
-793.728
-783.139
-772.008
-760.326
-748.086
-735.288
-721.934
-708.031
-693.592
-678.633
-663.174
-647.24
-630.861
-614.071
-596.906
-579.409
-561.624
-543.6
-525.387
-507.041
-488.616
-470.172
-451.767
-433.462
-415.319
-397.396
-379.756
-362.457
-345.557
-329.11
-313.17
-297.786
-283.005
-268.869
-255.417
-242.683
-230.698
-219.488
-209.072
-199.467
-190.685
-182.733
-175.611
-169.317
-163.843
-159.178
-155.304
-152.2
-149.842
-148.201
-147.244
-146.936
-147.238
-148.108
-149.502
-151.373
-153.674
-156.356
-159.367
-162.656
-166.172
-169.864
-173.68
-177.57
-181.485
-185.377
-189.2
-192.91
-196.464
-199.821
-202.945
-205.799
-208.351
-210.572
-212.434
-213.914
-214.99
-215.645
-215.864
-215.635
-214.949
-213.799
-212.183
-210.101
-207.553
-204.546
-201.086
-197.183
-192.848
-188.097
-182.944
-177.406
-171.504
-165.258
-158.688
-151.819
-144.672
-137.273
-129.647
-121.817
-113.811
-105.653
-97.369
-88.984
-80.522
-72.008
-63.465
-54.914
-46.378
-37.876
-29.427
-21.049
-12.757
-4.566
3.51
11.461
19.276
26.946
34.466
41.829
49.031
56.071
62.947
69.66
76.209
82.598
88.83
94.908
100.836
106.62
112.265
117.777
123.16
128.421
133.564
138.595
143.516
148.33
153.038
157.641
162.136
166.521
170.788
174.931
178.94
182.803
186.504
190.028
193.355
196.462
199.325
201.918
204.212
206.176
207.776
208.979
209.749
210.047
209.837
209.078
207.732
205.758
203.117
199.77
195.678
190.804
185.112
178.569
171.144
162.808
153.535
143.306
132.101
119.908
106.72
92.531
77.344
61.167
44.013
25.9
6.854
-13.095
-33.909
-55.545
-77.953
-101.08
-124.864
-149.239
-174.134
-199.474
-225.177
-251.16
-277.334
-303.607
-329.885
-356.07
-382.063
-407.763
-433.07
-457.882
-482.098
-505.619
-528.346
-550.185
-571.043
-590.831
-609.465
-626.866
-642.958
-657.675
-670.952
-682.736
-692.977
-701.634
-708.675
-714.072
-717.809
-719.876
-720.27
-718.997
-716.07
-711.51
-705.345
-697.612
-688.352
-677.615
-665.456
-651.938
-637.128
-621.097
-603.923
-585.686
-566.47
-546.362
-525.449
-503.822
-481.572
-458.788
-435.562
-411.981
-388.134
-364.106
-339.98
-315.83
-291.727
-267.741
-243.936
-220.375
-197.113
-174.191
-151.655
-129.56
-107.952
-86.874
-66.347
-46.365
-26.933
-8.083
10.199
27.977
45.301
62.232
78.796
94.939
110.66
126.06
141.094
155.511
169.27
182.489
195.163
207.608
219.348
228.661
235.854
242.596
251.466
267.442
290.495
315.593
337.812
350.138
351.773
349.426
348.305
353.921
367.508
384.057
400.391
414.441
425.442
435.395
445.263
454.933
464.458
473.508
481.96
490.06
497.869
505.308
512.355
518.996
525.195
530.916
536.113
540.721
544.708
548.084
550.847
552.99
554.514
555.419
555.713
555.415
554.54
553.106
551.133
548.648
545.68
542.266
538.44
534.239
529.7
524.864
519.774
514.479
509.025
503.452
497.809
492.163
486.57
481.09
475.772
470.641
465.724
461.08
456.726
452.627
448.781
445.181
441.83
438.811
436.202
433.961
432.188
431.206
431.074
431.647
432.984
434.84
437.561
442.782
450.338
458.482
464.574
463.821
455.21
443.067
433.64
434.465
448.775
472.306
496.646
514.123
520.303
516.223
508.744
502.966
501.766
506.487
513.577
520.588
526.837
531.068
534.238
537.182
539.577
541.588
543.102
543.888
544.118
543.933
543.34
542.351
540.956
539.154
536.981
534.325
531.035
527.184
522.789
517.845
512.664
506.469
498.5
489.9
481.039
474.003
471.28
470.179
468.92
464.839
454.26
440.503
426.387
413.856
406.097
400.898
396.015
390.98
384.438
377.236
370.446
363.908
357.786
352.043
346.498
341.318
336.638
332.447
328.755
325.597
322.984
320.92
319.413
318.448
318.006
318.095
318.723
319.879
321.554
323.735
326.403
329.541
333.127
337.135
341.532
346.285
351.356
356.708
362.297
368.08
374.008
380.034
386.107
392.176
398.187
404.088
409.825
415.345
420.594
425.521
430.073
434.201
437.856
440.994
443.57
445.543
446.876
447.534
447.487
446.706
445.168
442.855
439.752
435.848
431.138
425.623
419.307
412.199
404.314
395.673
386.3
376.225
365.481
354.109
342.151
329.654
316.668
303.249
289.452
275.339
260.97
246.409
231.722
216.975
202.234
187.565
173.035
158.71
144.653
130.927
117.593
104.709
92.33
80.509
69.295
58.733
48.863
39.722
31.343
23.751
16.97
11.016
5.9
1.629
-1.795
-4.377
-6.127
-7.059
-7.193
-6.552
-5.166
-3.067
-0.293
3.117
7.117
11.662
16.702
22.185
28.059
34.268
40.757
47.469
54.349
61.339
68.384
75.43
82.423
89.311
96.046
102.58
108.868
114.869
120.545
125.861
130.785
135.289
139.349
142.946
146.064
148.69
150.818
152.442
153.563
154.185
154.315
153.964
153.146
151.879
150.183
148.081
145.599
142.764
139.608
136.16
132.454
128.524
124.405
120.131
115.739
111.264
106.741
102.204
97.688
93.225
88.848
84.586
80.468
76.522
72.774
69.247
65.965
62.947
60.212
57.775
55.649
53.846
52.374
51.24
50.451
50.009
49.917
50.175
50.782
51.736
53.032
54.662
56.615
58.88
61.447
64.308
67.454
70.878
74.57
78.521
82.722
87.163
91.83
96.708
101.775
107.01
112.396
117.921
123.577
129.358
135.244
141.216
147.243
153.293
159.339
165.354
171.305
177.17
182.929
188.573
194.11
199.549
204.891
210.124
215.213
220.133
224.887
229.505
234.062
238.627
243.216
247.834
252.46
257.05
261.637
266.192
270.557
274.727
278.813
283.043
287.97
294.027
301.115
309.08
317.684
326.162
333.786
339.629
341.999
339.699
332.667
321.202
306.31
289.942
273.597
258.873
248.293
243.524
244.937
252.37
264.401
278.586
293.284
306.965
317.504
323.656
324.98
321.405
314.035
304.641
294.273
283.769
274.091
265.638
258.631
253.218
248.942
245.116
241.411
237.625
233.647
229.583
225.449
221.202
216.934
212.74
208.652
204.678
200.763
196.812
192.784
188.67
184.47
180.201
175.865
171.454
166.963
162.385
157.719
152.966
148.126
143.199
138.188
133.098
127.941
122.726
117.454
112.127
106.736
101.272
95.732
90.115
84.421
78.653
72.817
66.915
60.955
54.946
48.896
42.814
36.71
30.595
24.48
18.381
12.313
6.293
0.339
-5.531
-11.298
-16.943
-22.446
-27.786
-32.944
-37.899
-42.63
-47.117
-51.34
-55.277
-58.911
-62.221
-65.191
-67.803
-70.044
-71.899
-73.356
-74.406
-75.042
-75.258
-75.052
-74.422
-73.371
-71.904
-70.027
-67.749
-65.084
-62.045
-58.649
-54.916
-50.866
-46.523
-41.913
-37.064
-32.003
-26.763
-21.375
-15.873
-10.29
-4.662
0.975
6.587
12.136
17.587
22.904
28.053
33
37.713
42.159
46.311
50.14
53.621
56.733
59.454
61.767
63.659
65.116
66.131
66.697
66.814
66.481
65.703
64.487
62.844
60.786
58.33
55.494
52.302
48.776
44.943
40.831
36.471
31.894
27.135
22.226
17.205
12.107
6.968
1.825
-3.285
-8.326
-13.263
-18.062
-22.689
-27.112
-31.302
-35.23
-38.869
-42.196
-45.188
-47.827
-50.095
-51.98
-53.469
-54.555
-55.231
-55.497
-55.351
-54.797
-53.84
-52.489
-50.754
-48.649
-46.188
-43.389
-40.271
-36.856
-33.164
-29.221
-25.051
-20.679
-16.133
-11.439
-6.625
-1.717
3.255
8.265
13.286
18.292
23.255
28.152
32.958
37.649
42.204
46.601
50.82
54.844
58.655
62.237
65.576
68.658
71.474
74.011
76.261
78.215
79.867
81.21
82.241
82.953
83.345
83.413
83.155
82.569
81.654
80.408
78.831
76.921
74.679
72.104
69.196
65.955
62.381
58.474
54.234
49.663
44.761
39.529
33.968
28.08
21.867
15.332
8.476
1.304
-6.18
-13.972
-22.066
-30.456
-39.134
-48.094
-57.325
-66.818
-76.562
-86.544
-96.751
-107.168
-117.778
-128.565
-139.51
-150.594
-161.796
-173.093
-184.465
-195.887
-207.336
-218.788
-230.219
-241.604
-252.918
-264.137
-275.237
-286.194
-296.984
-307.586
-317.978
-328.14
-338.052
-347.697
-357.057
-366.118
-374.865
-383.287
-391.373
-399.114
-406.503
-413.535
-420.208
-426.52
-432.474
-438.072
-443.319
-448.223
-452.794
-457.041
-460.977
-464.615
-467.971
-471.061
-473.901
-476.511
-478.908
-481.111
-483.141
-485.016
-486.756
-488.38
-489.907
-491.356
-492.744
-494.089
-495.408
-496.717
-498.032
-499.367
-500.737
-502.155
-503.632
-505.179
-506.806
-508.52
-510.328
-512.235
-514.246
-516.361
-518.584
-520.912
-523.345
-525.88
-528.514
-531.241
-534.056
-536.952
-539.922
-542.957
-546.049
-549.189
-552.367
-555.574
-558.8
-562.035
-565.268
-568.487
-571.682
-574.841
-577.949
-580.996
-583.966
-586.847
-589.623
-592.28
-594.804
-597.181
-599.396
-601.434
-603.282
-604.926
-606.353
-607.55
-608.504
-609.205
-609.64
-609.8
-609.676
-609.258
-608.538
-607.51
-606.165
-604.5
-602.507
-600.184
-597.525
-594.53
-591.196
-587.525
-583.516
-579.174
-574.504
-569.513
-564.209
-558.602
-552.706
-546.533
-540.099
-533.421
-526.516
-519.406
-512.109
-504.647
-497.042
-489.317
-481.494
-473.597
-465.647
-457.668
-449.682
-441.71
-433.773
-425.893
-418.09
-410.382
-402.789
-395.327
-388.015
-380.867
-373.897
-367.117
-360.539
-354.17
-348.016
-342.083
-336.372
-330.883
-325.613
-320.557
-315.708
-311.058
-306.595
-302.305
-298.175
-294.189
-290.328
-286.576
-282.912
-279.319
-275.776
-272.265
-268.766
-265.261
-261.73
-258.156
-254.522
-250.811
-247.006
-243.093
-239.057
-234.884
-230.563
-226.082
-221.433
-216.608
-211.6
-206.405
-201.021
-195.448
-189.686
-183.738
-177.61
-171.308
-164.842
-158.22
-151.456
-144.561
-137.549
-130.436
-123.236
-115.965
-108.638
-101.27
-93.876
-86.47
-79.068
-71.681
-64.322
-57.005
-49.739
-42.535
-35.404
-28.354
-21.392
-14.527
-7.763
-1.107
5.438
11.869
18.183
24.379
30.456
36.417
42.262
47.994
53.616
59.133
64.55
69.871
75.102
80.248
85.315
90.307
95.227
100.079
104.865
109.586
114.24
118.826
123.341
127.779
132.135
136.401
140.567
144.623
148.556
152.352
155.996
159.472
162.763
165.851
168.715
171.336
173.693
175.765
177.529
178.963
180.045
180.751
181.059
180.946
180.39
179.372
177.869
175.864
173.339
170.28
166.672
162.504
157.768
152.458
146.57
140.104
133.062
125.45
117.276
108.554
99.297
89.525
79.258
68.521
57.341
45.748
33.773
21.452
8.821
-4.081
-17.213
-30.533
-43.998
-57.561
-71.176
-84.797
-98.376
-111.864
-125.215
-138.379
-151.31
-163.962
-176.289
-188.247
-199.793
-210.887
-221.491
-231.568
-241.084
-250.009
-258.314
-265.975
-272.969
-279.278
-284.887
-289.783
-293.957
-297.403
-300.118
-302.101
-303.355
-303.886
-303.701
-302.811
-301.228
-298.967
-296.045
-292.481
-288.296
-283.51
-278.149
-272.235
-265.796
-258.857
-251.446
-243.59
-235.319
-226.66
-217.642
-208.293
-198.643
-188.718
-178.546
-168.153
-157.566
-146.807
-135.903
-124.875
-113.745
-102.536
-91.266
-79.956
-68.625
-57.291
-45.971
-34.681
-23.439
-12.261
-1.161
9.845
20.741
31.512
42.144
52.62
62.926
73.047
82.966
92.669
102.14
111.363
120.321
129
137.381
145.448
153.185
160.572
167.593
174.229
180.462
186.273
191.645
196.558
200.996
204.939
208.37
211.273
213.631
215.43
216.654
217.29
217.326
216.753
215.561
213.743
211.295
208.214
204.499
200.153
195.178
189.583
183.374
176.565
169.169
161.204
152.687
143.642
134.093
124.068
113.597
102.711
91.445
79.836
67.923
55.745
43.346
30.769
18.058
5.26
-7.579
-20.411
-33.189
-45.867
-58.397
-70.732
-82.83
-94.645
-106.138
-117.267
-127.998
-138.295
-148.128
-157.469
-166.294
-174.581
-182.316
-189.485
-196.081
-202.1
-207.544
-212.418
-216.734
-220.506
-223.754
-226.501
-228.776
-230.612
-232.044
-233.112
-233.86
-234.334
-234.584
-234.661
-234.619
-234.516
-234.407
-234.35
-234.405
-234.629
-235.08
-235.814
-236.887
-238.351
-240.257
-242.654
-245.585
-249.092
-253.211
-257.975
-263.411
-269.539
-276.377
-283.935
-292.216
-301.22
-310.939
-321.359
-332.46
-344.217
-356.6
-369.572
-383.091
-397.11
-411.575
-426.43
-441.614
-457.062
-472.704
-488.468
-504.281
-520.066
-535.745
-551.238
-566.466
-581.345
-595.796
-609.735
-623.083
-635.758
-647.682
-658.78
-668.98
-678.212
-686.415
-693.528
-699.496
-704.271
-707.807
-710.066
-711.015
-710.624
-708.87
-705.734
-701.204
-695.274
-687.944
-679.216
-669.102
-657.616
-644.78
-630.617
-615.157
-598.431
-580.477
-561.336
-541.054
-519.681
-497.274
-473.894
-449.608
-424.491
-398.618
-372.065
-344.91
-317.232
-289.106
-260.608
-231.812
-202.785
-173.598
-144.32
-115.025
-85.792
-56.701
-27.829
0.746
28.944
56.689
83.9
110.507
136.455
161.687
186.144
209.76
232.452
254.157
274.84
294.474
313.045
330.564
347.046
362.534
377.127
390.914
403.977
416.388
428.155
439.279
449.775
459.658
468.951
477.644
485.658
492.892
499.281
504.736
509.171
512.462
514.372
514.709
513.341
510.174
505.25
498.66
490.491
480.878
470.014
458.16
445.704
433.096
420.697
408.866
397.955
388.334
380.513
374.935
371.921
371.718
374.417
380.031
388.577
400.007
414.149
430.763
449.45
469.717
491.182
513.473
536.232
559.113
581.644
603.417
624.175
643.761
662.147
679.372
695.411
710.26
724.002
736.711
748.568
759.817
770.59
781.045
791.308
801.433
811.548
821.733
831.936
842.056
851.822
860.797
868.756
875.684
881.722
887.171
892.074
896.139
899.173
901.219
902.24
901.936
899.46
893.828
884.896
873.612
861.531
849.895
839.627
831.797
828.057
830.252
839.257
854.331
873.543
895.349
918.736
942.791
966.377
987.808
1005.813
1020.319
1032.113
1041.751
1049.342
1054.648
1057.288
1057.424
1055.349
1051.061
1044.385
1035.139
1023.36
1009.376
993.715
976.867
959.216
941.076
922.733
904.549
886.897
870.178
854.807
841.032
828.97
818.653
810.027
803.042
797.598
793.476
790.34
787.835
785.722
783.921
782.442
781.239
780.179
779.05
777.628
775.818
773.623
771.05
768.075
764.656
760.798
756.655
752.494
748.512
744.727
740.997
737.148
733.107
728.922
724.677
720.4
716.022
711.396
706.412
701.04
695.237
688.902
681.771
673.47
663.75
652.584
640.09
626.369
611.38
594.931
576.864
557.151
535.85
513.106
489.022
463.659
437.158
409.767
381.885
354.011
326.542
299.68
273.566
248.393
224.493
202.363
182.419
164.942
150.154
138.2
129.231
123.384
120.653
120.913
123.949
129.49
137.333
147.349
159.356
173.097
188.202
204.149
220.46
236.697
252.392
267.148
280.597
292.422
302.453
310.58
316.694
320.683
322.384
321.655
318.464
312.839
304.872
294.783
282.811
269.27
254.585
239.109
223.129
206.886
190.506
174.122
157.916
142.083
126.853
112.426
98.925
86.461
75.13
64.947
55.879
47.802
40.477
33.738
27.491
21.68
16.314
11.393
6.877
2.744
-1.028
-4.461
-7.557
-10.331
-12.814
-14.993
-16.829
-18.236
-19.074
-19.251
-18.719
-17.451
-15.454
-12.739
-9.315
-5.221
-0.518
4.741
10.504
16.726
23.37
30.382
37.692
45.224
52.886
60.596
68.282
75.874
83.304
90.514
97.447
104.061
110.325
116.205
121.665
126.669
131.184
135.182
138.639
141.536
143.853
145.578
146.705
147.233
147.17
146.523
145.303
143.527
141.212
138.381
135.059
131.273
127.053
122.431
117.442
112.12
106.503
100.628
94.532
88.253
81.826
75.287
68.668
62.002
55.316
48.639
41.995
35.408
28.898
22.483
16.178
9.997
3.948
-1.959
-7.724
-13.344
-18.823
-24.166
-29.381
-34.476
-39.463
-44.356
-49.17
-53.919
-58.622
-63.295
-67.957
-72.627
-77.325
-82.068
-86.876
-91.767
-96.757
-101.862
-107.097
-112.474
-118.005
-123.698
-129.562
-135.6
-141.815
-148.209
-154.777
-161.517
-168.419
-175.474
-182.67
-189.991
-197.422
-204.942
-212.531
-220.166
-227.823
-235.477
-243.1
-250.667
-258.148
-265.514
-272.738
-279.79
-286.64
-293.261
-299.623
-305.699
-311.463
-316.887
-321.948
-326.622
-330.886
-334.721
-338.107
-341.029
-343.471
-345.421
-346.868
-347.804
-348.223
-348.122
-347.498
-346.352
-344.686
-342.503
-339.809
-336.612
-332.919
-328.74
-324.085
-318.966
-313.395
-307.384
-300.947
-294.096
-286.844
-279.207
-271.196
-262.826
-254.109
-245.06
-235.69
-226.012
-216.037
-205.778
-195.243
-184.444
-173.389
-162.087
-150.545
-138.771
-126.77
-114.549
-102.114
-89.468
-76.618
-63.567
-50.322
-36.887
-23.269
-9.473
4.493
18.62
32.9
47.321
61.873
76.541
91.312
106.169
121.096
136.074
151.082
166.099
181.103
196.068
210.97
225.782
240.474
255.019
269.385
283.54
297.453
311.088
324.413
337.391
349.989
362.169
373.897
385.137
395.854
406.015
415.585
424.533
432.828
440.44
447.342
453.508
458.915
463.54
467.365
470.371
472.544
473.871
474.342
473.949
472.685
470.549
467.537
463.653
458.899
453.282
446.809
439.491
431.341
422.374
412.606
402.057
390.747
378.7
365.938
352.488
338.375
323.629
308.278
292.351
275.879
258.892
241.421
223.497
205.153
186.418
167.325
147.904
128.187
108.204
87.986
67.563
46.965
26.221
5.363
-15.583
-36.586
-57.618
-78.652
-99.66
-120.614
-141.487
-162.255
-182.889
-203.366
-223.66
-243.746
-263.6
-283.198
-302.514
-321.527
-340.213
-358.548
-376.51
-394.076
-411.224
-427.931
-444.175
-459.935
-475.189
-489.917
-504.097
-517.709
-530.735
-543.154
-554.949
-566.103
-576.599
-586.422
-595.558
-603.993
-611.715
-618.715
-624.983
-630.512
-635.296
-639.332
-642.617
-645.153
-646.94
-647.984
-648.29
-647.867
-646.725
-644.878
-642.34
-639.128
-635.262
-630.764
-625.657
-619.967
-613.724
-606.957
-599.699
-591.984
-583.848
-575.33
-566.468
-557.305
-547.883
-538.245
-528.436
-518.503
-508.492
-498.449
-488.42
-478.453
-468.594
-458.889
-449.381
-440.115
-431.133
-422.476
-414.183
-406.293
-398.84
-391.858
-385.378
-379.428
-374.036
-369.223
-365.011
-361.416
-358.453
-356.133
-354.463
-353.449
-353.09
-353.385
-354.326
-355.903
-358.103
-360.909
-364.299
-368.251
-372.737
-377.727
-383.19
-389.091
-395.392
-402.056
-409.04
-416.304
-423.804
-431.497
-439.337
-447.28
-455.281
-463.295
-471.279
-479.189
-486.982
-494.616
-502.052
-509.248
-516.17
-522.78
-529.045
-534.936
-540.425
-545.487
-550.102
-554.251
-557.922
-561.103
-563.786
-565.966
-567.645
-568.825
-569.512
-569.715
-569.449
-568.728
-567.574
-566.009
-564.056
-561.74
-559.089
-556.132
-552.897
-549.416
-545.716
-541.83
-537.791
-533.632
-529.389
-525.095
-520.784
-516.49
-512.246
-508.083
-504.032
-500.119
-496.37
-492.807
-489.454
-486.332
-483.461
-480.858
-478.54
-476.519
-474.809
-473.418
-472.352
-471.616
-471.208
-471.128
-471.376
-471.951
-472.852
-474.077
-475.625
-477.496
-479.697
-482.228
-485.085
-488.263
-491.756
-495.558
-499.662
-504.054
-508.718
-513.643
-518.822
-524.256
-529.949
-535.906
-542.127
-548.619
-555.39
-562.444
-569.782
-577.393
-585.249
-593.332
-601.638
-610.17
-618.946
-627.97
-637.213
-646.654
-656.279
-666.04
-675.875
-685.675
-695.282
-704.576
-713.489
-721.985
-730.058
-737.697
-744.879
-751.602
-757.884
-763.755
-769.249
-774.346
-779.032
-783.367
-787.446
-791.488
-795.799
-800.528
-805.755
-811.579
-817.856
-824.4
-831.323
-838.455
-845.396
-852.327
-858.418
-862.741
-866.464
-869.832
-874.6
-883.687
-895.175
-906.284
-912.07
-905.479
-885.147
-854.195
-819.581
-789.851
-769.635
-757.363
-746.325
-730.189
-704.75
-670.428
-632.243
-593.83
-557.653
-524.716
-493.847
-465.021
-439.07
-416.497
-397.963
-383.65
-373.183
-366.428
-363.444
-364.243
-368.836
-377.15
-389.086
-404.572
-423.537
-445.827
-471.046
-498.565
-527.719
-557.95
-588.856
-620.175
-651.684
-683.111
-714.167
-744.557
-774.025
-802.337
-829.126
-853.971
-876.442
-896.105
-912.741
-926.335
-936.872
-944.323
-948.673
-949.878
-947.969
-943.075
-935.285
-924.686
-911.372
-895.437
-877.131
-856.809
-834.848
-811.677
-787.676
-763.142
-738.439
-713.971
-690.036
-666.868
-644.624
-623.382
-603.268
-584.442
-567.041
-551.177
-536.887
-524.17
-513.03
-503.254
-494.517
-486.702
-479.511
-472.53
-465.791
-458.283
-449.054
-439.18
-428.928
-420.242
-415.51
-411.868
-407.328
-399.074
-383.288
-363.209
-341.687
-320.736
-303.691
-288.545
-273.198
-257.27
-239.472
-220.669
-201.941
-183.156
-164.487
-145.889
-127.23
-108.711
-90.496
-72.625
-55.105
-37.927
-21.044
-4.341
12.278
28.886
45.549
62.276
79.056
95.897
112.788
129.695
146.608
163.521
180.428
197.343
214.269
231.194
248.106
264.982
281.795
298.53
315.174
331.715
348.15
364.479
380.703
396.836
412.887
428.858
444.75
460.557
476.27
491.88
507.377
522.743
537.963
553.02
567.899
582.582
597.05
611.283
625.265
638.975
652.391
665.491
678.245
690.63
702.629
714.212
725.339
735.971
746.069
755.61
764.596
773.009
780.802
787.975
794.57
800.616
806.151
811.172
815.602
819.421
822.71
825.395
827.205
828.097
828.179
827.44
826.211
823.948
818.93
811.594
803.599
797.678
798.894
806.939
816.841
823.634
820.202
806.161
788.29
771.822
762.471
761.29
763.26
765.299
765.462
763.32
760.884
759.131
758.06
757.452
757.896
760.189
763.419
767.318
769.626
767.695
764.484
761.938
762.956
771.512
783.987
797.333
809.481
816.997
822.277
827.75
833.919
842.241
851.798
861.416
871.248
881.094
890.967
901.036
911.089
920.946
930.583
939.946
948.959
957.564
965.71
973.341
980.428
986.943
992.828
998.027
1002.503
1006.215
1009.133
1011.233
1012.478
1012.836
1012.29
1010.824
1008.438
1005.143
1000.939
995.829
989.864
983.1
975.573
967.323
958.371
948.715
938.393
927.474
915.865
903.437
890.352
876.715
862.551
848.215
833.035
816.368
799.398
782.577
768.289
758.964
752.495
747.764
740.6
726.617
707.327
683.191
659.247
641.081
629.501
626.131
626.777
626.917
625.047
619.504
614.325
611.712
610.556
609.417
602.596
589.717
576.034
566.479
568.261
581.62
599.595
616.674
626.705
628.566
627.219
625.732
626.542
629.664
631.502
630.62
628.321
629.048
639.185
662.168
696.093
731.63
757.71
765.936
752.38
724.112
690.538
660.692
645.562
647.102
665.28
698.354
735.512
767.92
786.358
783.482
762.85
732.173
702.118
682.076
673.819
674.301
677.402
678.099
674.897
668.372
660.433
652.155
643.484
634.315
624.495
614.177
603.764
593.442
583.265
573.297
563.566
554.083
544.852
535.839
527.02
518.401
510.013
501.877
493.999
486.384
479.037
471.963
465.165
458.644
452.382
446.357
440.54
434.892
429.374
423.943
418.549
413.146
407.69
402.138
396.461
390.64
384.646
378.443
371.983
365.201
358.058
350.526
342.579
334.206
325.423
316.27
306.837
297.235
287.534
277.785
268.009
258.184
248.301
238.342
228.273
218.104
207.827
197.428
186.94
176.38
165.723
154.894
143.716
131.972
119.543
106.351
92.361
77.622
62.184
46.198
29.931
13.61
-2.523
-18.235
-33.368
-47.74
-61.131
-73.288
-83.857
-92.45
-98.802
-102.671
-103.841
-102.188
-97.603
-90.185
-80.26
-68.155
-54.249
-38.922
-22.515
-5.451
11.834
28.94
45.421
60.833
74.811
86.96
96.871
104.188
108.547
109.803
108.036
103.349
95.939
86.037
73.896
59.904
44.433
27.761
10.142
-8.199
-27.075
-46.22
-65.346
-84.182
-102.411
-119.83
-136.353
-151.897
-166.458
-180.085
-192.866
-204.999
-216.658
-227.913
-238.785
-249.249
-259.259
-268.82
-277.936
-286.592
-294.822
-302.642
-310.045
-317.049
-323.629
-329.718
-335.231
-340.032
-343.997
-347.066
-349.208
-350.421
-350.732
-350.172
-348.792
-346.682
-343.919
-340.573
-336.707
-332.38
-327.658
-322.636
-317.407
-312.066
-306.725
-301.488
-296.468
-291.799
-287.592
-283.916
-280.822
-278.327
-276.417
-275.095
-274.357
-274.166
-274.512
-275.411
-276.899
-279.074
-282.032
-285.812
-290.413
-295.78
-301.846
-308.611
-316.082
-324.264
-333.22
-342.99
-353.625
-365.26
-377.948
-391.627
-406.161
-421.264
-436.59
-451.889
-466.956
-481.627
-495.781
-509.221
-521.747
-533.201
-543.362
-552.008
-558.888
-563.631
-565.957
-565.767
-563.062
-558.028
-550.966
-542.074
-531.515
-519.46
-506.02
-491.352
-475.622
-458.926
-441.404
-423.238
-404.666
-386.035
-367.658
-349.701
-332.26
-315.311
-298.739
-282.51
-266.617
-251.027
-235.771
-220.882
-206.401
-192.442
-179.118
-166.495
-154.6
-143.401
-132.864
-123.019
-113.927
-105.683
-98.42
-92.233
-87.199
-83.412
-80.926
-79.768
-79.947
-81.423
-84.131
-88.025
-93.061
-99.2
-106.407
-114.624
-123.775
-133.783
-144.557
-156
-168.016
-180.493
-193.324
-206.406
-219.642
-232.944
-246.227
-259.407
-272.394
-285.107
-297.459
-309.368
-320.755
-331.542
-341.653
-351.019
-359.58
-367.282
-374.078
-379.929
-384.801
-388.671
-391.522
-393.344
-394.136
-393.903
-392.659
-390.425
-387.227
-383.101
-378.086
-372.23
-365.584
-358.208
-350.164
-341.518
-332.339
-322.699
-312.675
-302.34
-291.774
-281.054
-270.258
-259.466
-248.756
-238.206
-227.894
-217.894
-208.279
-199.116
-190.471
-182.404
-174.971
-168.222
-162.2
-156.945
-152.488
-148.857
-146.07
-144.143
-143.081
-142.886
-143.551
-145.065
-147.409
-150.561
-154.491
-159.165
-164.545
-170.589
-177.251
-184.482
-192.231
-200.443
-209.064
-218.036
-227.301
-236.8
-246.474
-256.264
-266.113
-275.963
-285.76
-295.451
-304.987
-314.319
-323.406
-332.208
-340.69
-348.821
-356.574
-363.929
-370.867
-377.377
-383.451
-389.087
-394.287
-399.058
-403.409
-407.354
-410.912
-414.101
-416.946
-419.47
-421.699
-423.661
-425.383
-426.895
-428.225
-429.4
-430.448
-431.396
-432.268
-433.086
-433.873
-434.645
-435.417
-436.201
-437.005
-437.834
-438.688
-439.563
-440.452
-441.343
-442.22
-443.062
-443.844
-444.539
-445.113
-445.531
-445.755
-445.741
-445.447
-444.828
-443.835
-442.422
-440.542
-438.145
-435.187
-431.622
-427.405
-422.494
-416.851
-410.44
-403.226
-395.18
-386.277
-376.495
-365.818
-354.234
-341.734
-328.319
-313.99
-298.756
-282.632
-265.637
-247.795
-229.139
-209.702
-189.526
-168.657
-147.145
-125.043
-102.412
-79.312
-55.808
-31.967
-7.857
16.451
40.886
65.377
89.853
114.244
138.481
162.496
186.223
209.601
232.567
255.066
277.043
298.447
319.232
339.36
358.791
377.494
395.439
412.599
428.96
444.514
459.242
473.13
486.175
498.372
509.74
520.311
530.088
539.076
547.34
554.937
561.924
568.37
574.282
579.64
584.519
589.02
593.036
596.445
599.356
601.773
603.734
605.627
606.658
606.03
605.028
604.177
605.48
611.446
619.4
627.227
633.103
634.164
632.523
630.625
628.19
625.753
623.978
622.523
623.777
630.319
639.434
649.17
657.271
660.475
661.112
661.399
661.997
664.486
667.937
671.201
674.475
677.584
680.566
683.61
686.517
689.115
691.42
693.419
695.062
696.324
697.184
697.615
697.615
697.188
696.296
694.909
693.011
690.583
687.613
684.093
680.012
675.363
670.148
664.373
658.043
651.173
643.777
635.874
627.488
618.646
609.378
599.718
589.703
579.374
568.774
557.948
546.946
535.818
524.617
513.396
502.21
491.117
480.171
469.431
458.953
448.793
439.006
429.646
420.766
412.415
404.641
397.486
390.993
385.196
380.128
375.814
372.278
369.534
367.594
366.463
366.14
366.619
367.888
369.929
372.717
376.224
380.414
385.249
390.681
396.663
403.14
410.055
417.347
424.952
432.803
440.833
448.969
457.142
465.279
473.307
481.154
488.748
496.021
502.903
509.331
515.24
520.574
525.277
529.299
532.594
535.121
536.846
537.738
537.773
536.932
535.203
532.579
529.06
524.65
519.36
513.205
506.206
498.389
489.783
480.421
470.34
459.581
448.187
436.202
423.675
410.653
397.187
383.327
369.124
354.628
339.889
324.956
309.874
294.689
279.444
264.179
248.93
233.733
218.618
203.612
188.739
174.018
159.464
145.089
130.901
116.903
103.094
89.473
76.03
62.758
49.643
36.671
23.825
11.086
-1.566
-14.151
-26.693
-39.212
-51.733
-64.276
-76.865
-89.521
-102.264
-115.112
-128.084
-141.196
-154.461
-167.892
-181.498
-195.287
-209.264
-223.431
-237.787
-252.328
-267.048
-281.937
-296.982
-312.168
-327.476
-342.885
-358.373
-373.915
-389.482
-405.047
-420.58
-436.05
-451.425
-466.673
-481.761
-496.657
-511.329
-525.744
-539.872
-553.683
-567.145
-580.232
-592.916
-605.171
-616.973
-628.299
-639.128
-649.44
-659.22
-668.452
-677.123
-685.224
-692.746
-699.685
-706.039
-711.806
-716.989
-721.594
-725.625
-729.093
-732.007
-734.379
-736.222
-737.551
-738.379
-738.724
-738.6
-738.025
-737.014
-735.583
-733.749
-731.528
-728.934
-725.982
-722.687
-719.063
-715.121
-710.874
-706.334
-701.51
-696.411
-691.046
-685.42
-679.539
-673.406
-667.022
-660.389
-653.505
-646.368
-638.974
-631.317
-623.392
-615.192
-606.709
-597.935
-588.863
-579.485
-569.794
-559.784
-549.448
-538.782
-527.783
-516.448
-504.778
-492.772
-480.434
-467.768
-454.779
-441.476
-427.869
-413.969
-399.791
-385.35
-370.665
-355.756
-340.647
-325.362
-309.93
-294.38
-278.746
-263.06
-247.361
-231.686
-216.077
-200.574
-185.219
-170.058
-155.132
-140.487
-126.167
-112.213
-98.669
-85.576
-72.975
-60.903
-49.397
-38.492
-28.22
-18.611
-9.693
-1.489
5.978
12.69
18.632
23.791
28.158
31.729
34.502
36.48
37.667
38.075
37.718
36.612
34.78
32.246
29.039
25.19
20.734
15.707
10.15
4.104
-2.388
-9.282
-16.53
-24.087
-31.904
-39.934
-48.129
-56.441
-64.824
-73.231
-81.618
-89.94
-98.155
-106.222
-114.103
-121.76
-129.159
-136.268
-143.056
-149.498
-155.569
-161.248
-166.518
-171.364
-175.775
-179.742
-183.26
-186.327
-188.943
-191.112
-192.838
-194.129
-194.997
-195.453
-195.511
-195.186
-194.496
-193.459
-192.093
-190.418
-188.454
-186.223
-183.744
-181.038
-178.126
-175.028
-171.765
-168.355
-164.817
-161.171
-157.432
-153.617
-149.741
-145.818
-141.86
-137.879
-133.884
-129.884
-125.886
-121.897
-117.921
-113.964
-110.029
-106.117
-102.231
-98.372
-94.541
-90.737
-86.962
-83.214
-79.495
-75.806
-72.146
-68.518
-64.924
-61.367
-57.849
-54.375
-50.949
-47.577
-44.265
-41.021
-37.852
-34.767
-31.776
-28.89
-26.122
-23.483
-20.987
-18.649
-16.483
-14.506
-12.734
-11.183
-9.871
-8.815
-8.033
-7.542
-7.362
-7.509
-8.001
-8.856
-10.089
-11.716
-13.752
-16.209
-19.102
-22.441
-26.236
-30.496
-35.229
-40.439
-46.131
-52.309
-58.972
-66.119
-73.748
-81.852
-90.426
-99.459
-108.94
-118.856
-129.192
-139.929
-151.047
-162.525
-174.338
-186.46
-198.86
-211.509
-224.373
-237.416
-250.602
-263.891
-277.243
-290.616
-303.966
-317.25
-330.42
-343.432
-356.238
-368.791
-381.042
-392.943
-404.449
-415.51
-426.081
-436.118
-445.575
-454.411
-462.586
-470.061
-476.801
-482.773
-487.945
-492.29
-495.785
-498.408
-500.143
-500.977
-500.902
-499.913
-498.012
-495.203
-491.495
-486.903
-481.446
-475.147
-468.034
-460.14
-451.502
-442.161
-432.162
-421.555
-410.394
-398.734
-386.635
-374.16
-361.373
-348.34
-335.13
-321.81
-308.45
-295.121
-281.892
-268.832
-256.01
-243.492
-231.345
-219.632
-208.414
-197.744
-187.673
-178.251
-169.522
-161.531
-154.314
-147.892
-142.297
-137.564
-133.722
-130.794
-128.785
-127.665
-127.426
-128.079
-129.584
-131.859
-134.83
-138.414
-142.566
-147.315
-152.627
-158.373
-164.581
-171.47
-179.025
-187.101
-195.67
-204.347
-213.669
-225.287
-238.662
-252.18
-263.079
-266.367
-262.533
-256.386
-252.808
-258.751
-274.243
-292.668
-308.927
-317.411
-317.384
-313.73
-309.343
-306.299
-305.084
-303.656
-301.147
-297.596
-292.935
-287.47
-281.261
-274.045
-265.758
-256.459
-246.161
-234.875
-222.638
-209.494
-195.502
-180.746
-165.278
-149.12
-132.31
-114.898
-96.931
-78.461
-59.538
-40.208
-20.522
-0.536
19.697
40.124
60.692
81.353
102.057
122.756
143.405
163.96
184.379
204.623
224.655
244.441
263.949
283.149
302.015
320.521
338.646
356.369
373.673
390.542
406.963
422.922
438.409
453.415
467.932
481.953
495.472
508.484
520.984
532.97
544.438
555.385
565.808
575.704
585.07
593.901
602.192
609.94
617.138
623.779
629.855
635.358
640.277
644.601
648.32
651.42
653.888
655.711
656.876
657.367
657.173
656.279
654.674
652.346
649.284
645.48
640.927
635.62
629.556
622.734
615.156
606.829
597.759
587.957
577.439
566.221
554.326
541.776
528.6
514.828
500.495
485.64
470.303
454.531
438.37
421.873
405.092
388.086
370.911
353.629
336.3
318.986
301.751
284.658
267.77
251.149
234.855
218.948
203.483
188.516
174.098
160.272
147.083
134.566
122.754
111.676
101.355
91.805
83.041
75.068
67.891
61.507
55.905
51.073
46.989
43.628
40.96
38.949
37.555
36.734
36.438
36.617
37.219
38.187
39.466
40.996
42.716
44.567
46.489
48.425
50.318
52.113
53.76
55.215
56.44
57.4
58.064
58.408
58.417
58.082
57.397
56.357
54.961
53.216
51.136
48.741
46.053
43.098
39.911
36.539
33.04
29.474
25.904
22.386
18.983
15.76
12.784
10.126
7.848
6.002
4.65
3.865
3.737
4.357
5.788
8.052
11.147
15.079
19.861
25.497
31.962
39.21
47.216
55.999
65.624
76.162
87.633
100.007
113.204
127.139
141.778
157.135
173.236
190.06
207.58
225.791
244.749
264.542
285.161
306.459
328.161
349.993
371.767
393.361
414.708
435.714
456.23
476.078
495.106
513.211
530.277
546.137
560.522
573.14
583.841
592.67
599.828
605.511
609.817
612.789
614.447
614.862
614.137
612.359
609.564
605.755
600.986
595.382
589.167
582.587
575.765
568.681
561.206
553.234
544.73
535.688
526.104
515.934
505.142
493.74
481.801
469.411
456.61
443.388
429.683
415.429
400.621
385.315
369.606
353.575
337.28
320.776
304.129
287.43
270.749
254.117
237.532
220.992
204.51
188.114
171.84
155.714
139.754
123.981
108.413
93.078
78.008
63.232
48.78
34.684
20.971
7.67
-5.188
-17.595
-29.526
-40.944
-51.807
-62.055
-71.642
-80.558
-88.79
-96.328
-103.202
-109.456
-115.184
-120.541
-125.631
-130.509
-135.194
-139.638
-143.827
-147.786
-151.526
-155.071
-158.404
-161.417
-164.064
-166.358
-168.249
-169.713
-170.559
-170.315
-168.829
-166.256
-162.788
-158.817
-154.446
-149.272
-143.294
-136.976
-130.337
-123.191
-115.218
-105.581
-94.462
-83.254
-72.884
-63.974
-57.463
-54.122
-54.922
-61.389
-73.6
-90.128
-109.97
-132.219
-155.842
-180.124
-204.007
-225.958
-245.555
-263.499
-280.106
-295.46
-309.519
-321.886
-332.556
-341.964
-350.069
-356.335
-360.423
-362.242
-361.981
-360.199
-357.258
-353.205
-348.158
-342.292
-335.818
-329.023
-322.102
-315.091
-308.029
-301.022
-294.203
-287.796
-281.978
-276.73
-271.94
-267.43
-263.063
-258.81
-254.673
-250.648
-246.716
-242.879
-239.179
-235.713
-232.575
-229.804
-227.395
-225.296
-223.458
-221.902
-220.694
-219.932
-219.688
-220.001
-220.894
-222.393
-224.528
-227.3
-230.673
-234.575
-238.936
-243.706
-248.849
-254.338
-260.14
-266.205
-272.474
-278.886
-285.38
-291.893
-298.356
-304.694
-310.831
-316.71
-322.275
-327.467
-332.233
-336.519
-340.285
-343.521
-346.204
-348.288
-349.768
-350.683
-351.065
-350.957
-350.373
-349.255
-347.593
-345.487
-342.895
-339.578
-335.498
-330.786
-325.452
-319.818
-313.459
-304.712
-293.871
-282.622
-273.501
-271.423
-276.503
-283.834
-288.653
-284.146
-269.453
-251.213
-234.603
-225.053
-223.926
-226.352
-229.229
-230.585
-229.666
-228.47
-227.997
-228.158
-229.033
-230.321
-231.908
-234.047
-236.804
-240.101
-243.908
-248.199
-252.922
-258.018
-263.414
-269.011
-274.737
-280.556
-286.418
-292.259
-298.024
-303.65
-309.076
-314.247
-319.103
-323.585
-327.641
-331.223
-334.283
-336.779
-338.685
-339.997
-340.703
-340.794
-340.246
-339.016
-337.084
-334.436
-331.005
-326.701
-321.479
-315.312
-308.226
-300.337
-291.722
-282.477
-272.943
-263.457
-254.059
-244.681
-235.208
-226.001
-218.332
-213.382
-210.433
-205.281
-192.288
-166.952
-129.556
-89.952
-60.509
-50.525
-63.638
-88.777
-109.987
-116.21
-100.173
-68.441
-34.448
-6.319
9.582
14.544
15.867
16.993
20.189
25.98
31.989
37.34
42.146
46.334
50.229
54.062
57.968
60.926
62.18
62.849
62.933
65.489
73.94
84.319
94.495
99.441
92.611
80.453
67.875
59.911
64.006
74.153
84.877
93.498
95.026
92.867
90.696
88.904
89.225
90.667
91.831
93.082
94.376
95.752
97.437
99.277
101.132
103.023
104.942
106.839
108.675
110.453
112.169
113.823
115.426
116.948
118.359
119.649
120.806
121.814
122.664
123.342
123.836
124.143
124.262
124.192
123.935
123.496
122.881
122.101
121.168
120.099
118.91
117.623
116.261
114.848
113.413
111.984
110.593
109.272
108.054
106.975
106.07
105.373
104.921
104.748
104.889
105.377
106.244
107.52
109.233
111.409
114.071
117.239
120.93
125.158
129.932
135.258
141.14
147.576
154.56
162.083
170.13
178.686
187.729
197.234
207.172
217.512
228.22
239.257
250.585
262.162
273.943
285.885
297.942
310.069
322.218
334.346
346.406
358.355
370.152
381.754
393.125
404.228
415.03
425.5
435.612
445.342
454.671
463.582
472.064
480.107
487.709
494.868
501.59
507.881
513.754
519.223
524.307
529.027
533.408
537.477
541.26
544.79
548.095
551.208
554.159
556.98
559.7
562.347
564.949
567.529
570.11
572.712
575.35
578.039
580.787
583.6
586.482
589.43
592.439
595.499
598.596
601.712
604.825
607.909
610.936
613.871
616.679
619.321
621.754
623.934
625.816
627.352
628.494
629.194
629.404
629.077
628.168
626.634
624.435
621.533
617.895
613.491
608.298
602.293
595.463
587.797
579.291
569.945
559.767
548.771
536.973
524.399
511.08
497.05
482.352
467.032
451.143
434.74
417.885
400.643
383.083
365.277
347.3
329.23
311.145
293.125
275.25
257.6
240.255
223.29
206.778
190.791
175.392
160.648
146.625
133.377
120.949
109.396
98.757
89.071
80.385
72.704
66.007
60.3
55.578
51.804
48.973
47.049
45.95
45.691
46.348
47.903
50.318
53.67
57.962
63.025
68.896
75.437
81.942
89.125
97.828
106.765
115.876
122.24
121.199
116.055
110.464
110.322
125.221
151.082
179.213
201.785
207.248
197.724
183.264
170.296
166.751
172.641
181.096
188.85
193.305
193.9
193.225
192.157
190.53
188.472
185.65
182.003
177.881
173.416
168.597
163.49
158.168
152.647
146.95
141.087
135.028
128.771
122.358
115.823
109.21
102.567
95.914
89.293
82.796
76.541
70.615
65.049
59.814
54.876
50.252
45.872
41.439
36.703
31.631
26.313
21.034
15.139
7
-3.881
-16.512
-26.685
-28.168
-18.9
-1.326
16.481
23.084
13.966
-9.165
-38.969
-63.127
-76.076
-77.488
-69.924
-61.65
-56.991
-57.04
-62.878
-71.182
-79.765
-88.311
-95.609
-102.372
-109.37
-116.325
-123.391
-130.47
-137.33
-144.106
-150.927
-157.793
-164.715
-171.684
-178.652
-185.582
-192.448
-199.208
-205.816
-212.254
-218.506
-224.551
-230.375
-235.964
-241.305
-246.389
-251.21
-255.758
-260.031
-264.026
-267.746
-271.193
-274.374
-277.297
-279.973
-282.415
-284.637
-286.655
-288.485
-290.144
-291.651
-293.026
-294.291
-295.466
-296.573
-297.632
-298.663
-299.685
-300.718
-301.776
-302.874
-304.022
-305.228
-306.502
-307.851
-309.282
-310.797
-312.389
-314.048
-315.763
-317.522
-319.307
-321.103
-322.884
-324.624
-326.304
-327.898
-329.387
-330.75
-331.952
-332.96
-333.734
-334.226
-334.429
-334.328
-333.917
-333.197
-332.124
-330.647
-328.757
-326.439
-323.676
-320.483
-316.754
-312.379
-307.504
-302.248
-296.745
-291.186
-285.409
-279.219
-272.79
-266.239
-259.266
-251.695
-243.109
-233.038
-221.941
-210.145
-197.637
-184.792
-172.044
-159.829
-148.386
-137.046
-125.653
-115.144
-108.21
-109.377
-118.733
-132.95
-146.028
-148.48
-137.771
-116.317
-89.813
-69.414
-61.116
-66.735
-84.074
-104.576
-122.197
-133.326
-137.689
-140.007
-143.519
-150.048
-160.098
-171.838
-184.368
-197.662
-211.619
-226.53
-242.362
-258.714
-275.381
-292.255
-309.229
-326.229
-343.171
-359.969
-376.547
-392.853
-408.804
-424.289
-439.206
-453.463
-466.971
-479.648
-491.415
-502.186
-511.904
-520.535
-528.038
-534.376
-539.509
-543.381
-545.961
-547.242
-547.169
-545.661
-542.668
-538.167
-532.194
-524.86
-516.256
-506.43
-495.618
-484.227
-472.402
-460.092
-447.337
-433.88
-420.232
-407.874
-396.216
-383.716
-367.943
-344.245
-312.505
-276.433
-240.44
-212.78
-198.509
-197.133
-207.413
-222.894
-233.561
-232.318
-212.405
-172.267
-121.058
-70.795
-34.85
-22.855
-32.094
-53.17
-73.642
-83.259
-80.3
-68.655
-54.929
-44.297
-38.129
-35.56
-34.64
-34.322
-34.605
-35.681
-37.857
-40.966
-44.556
-48.147
-51.087
-53.081
-54.295
-54.962
-55.429
-56.183
-57.612
-60.608
-66.66
-76.398
-89.584
-105.483
-122.712
-140.048
-156.711
-171.25
-181.57
-186.647
-186.439
-181.794
-174.627
-166.334
-157.6
-149.619
-143.96
-141.52
-142.612
-146.656
-152.068
-157.866
-163.775
-169.288
-173.745
-176.452
-176.763
-174.803
-171.596
-167.968
-164.184
-160.515
-157.375
-155.717
-156.795
-161.04
-167.711
-175.597
-183.923
-192.173
-199.747
-205.479
-207.737
-205.722
-200.056
-192.268
-183.569
-174.685
-166.194
-158.923
-154.162
-152.681
-154.125
-157.329
-161.275
-165.406
-169.462
-173.224
-176.166
-177.865
-178.396
-178.218
-177.776
-177.281
-176.731
-176.004
-175.097
-174.079
-172.941
-171.607
-169.98
-168.002
-165.684
-163.086
-160.254
-157.197
-153.904
-150.348
-146.514
-142.401
-138.005
-133.327
-128.364
-123.111
-117.565
-111.723
-105.586
-99.156
-92.432
-85.412
-78.094
-70.482
-62.588
-54.432
-46.033
-37.41
-28.582
-19.566
-10.385
-1.062
8.377
17.909
27.507
37.144
46.791
56.419
65.996
75.491
84.874
94.113
103.178
112.036
120.656
129.005
137.053
144.768
152.122
159.085
165.629
171.729
177.362
182.506
187.141
191.25
194.819
197.836
200.293
202.183
203.503
204.254
204.436
204.057
203.124
201.646
199.639
197.116
194.097
190.603
186.656
182.283
177.512
172.375
166.904
161.135
155.105
148.853
142.419
135.844
129.172
122.445
115.706
108.998
102.363
95.844
89.479
83.309
77.37
71.697
66.323
61.278
56.59
52.283
48.38
44.898
41.854
39.261
37.129
35.462
34.265
33.535
33.27
33.46
34.093
35.153
36.622
38.475
40.687
43.227
46.062
49.157
52.472
55.968
59.602
63.33
67.106
70.885
74.621
78.268
81.781
85.114
88.224
91.07
93.611
95.81
97.631
99.04
100.006
100.501
100.501
99.983
98.929
97.324
95.157
92.421
89.112
85.232
80.785
75.78
70.231
64.156
57.574
50.512
42.998
35.062
26.741
18.073
9.096
-0.145
-9.607
-19.244
-29.009
-38.854
-48.73
-58.588
-68.38
-78.057
-87.569
-96.868
-105.907
-114.639
-123.017
-130.998
-138.537
-145.594
-152.127
-158.099
-163.473
-168.217
-172.298
-175.688
-178.36
-180.291
-181.46
-181.848
-181.44
-180.223
-178.188
-175.328
-171.637
-167.114
-161.759
-155.576
-148.57
-140.747
-132.117
-122.693
-112.489
-101.519
-89.804
-77.363
-64.219
-50.397
-35.923
-20.827
-5.139
11.108
27.879
45.139
62.85
80.973
99.468
118.293
137.406
156.765
176.324
196.042
215.872
235.772
255.696
275.601
295.444
315.182
334.772
354.172
373.343
392.245
410.839
429.09
446.962
464.422
481.439
497.985
514.034
529.562
544.547
558.972
572.821
586.081
598.743
610.801
622.249
633.088
643.32
652.949
661.982
670.429
678.303
685.617
692.386
698.629
704.365
709.613
714.396
718.736
722.657
726.183
729.338
732.147
734.635
736.826
738.744
740.412
741.852
743.085
744.13
745.007
745.73
746.315
746.775
747.12
747.358
747.497
747.539
747.486
747.337
747.09
746.739
746.277
745.695
744.982
744.127
743.115
741.93
740.558
738.98
737.178
735.133
732.826
730.236
727.343
724.129
720.572
716.654
712.358
707.664
702.558
697.023
691.046
684.614
677.717
670.346
662.493
654.154
645.327
636.011
626.209
615.925
605.165
593.939
582.257
570.134
557.583
544.623
531.271
517.55
503.479
489.084
474.389
459.421
444.205
428.77
413.143
397.355
381.432
365.403
349.298
333.145
316.971
300.804
284.67
268.596
252.606
236.724
220.972
205.371
189.94
174.697
159.656
144.833
130.24
115.886
101.781
87.932
74.345
61.024
47.971
35.188
22.674
10.43
-1.549
-13.264
-24.72
-35.92
-46.869
-57.573
-68.036
-78.264
-88.262
-98.035
-107.591
-116.932
-126.066
-134.998
-143.731
-152.272
-160.623
-168.79
-176.774
-184.579
-192.208
-199.661
-206.941
-214.049
-220.987
-227.756
-234.357
-240.792
-247.063
-253.171
-259.121
-264.916
-270.561
-276.062
-281.425
-286.661
-291.779
-296.791
-301.71
-306.553
-311.334
-316.073
-320.79
-325.504
-330.238
-335.016
-339.863
-344.804
-349.865
-355.076
-360.462
-366.055
-371.881
-377.972
-384.355
-391.059
-398.112
-405.541
-413.371
-421.627
-430.331
-439.502
-449.158
-459.314
-469.979
-481.163
-492.868
-505.093
-517.835
-531.083
-544.824
-559.039
-573.705
-588.794
-604.274
-620.109
-636.256
-652.671
-669.305
-686.102
-703.006
-719.956
-736.887
-753.733
-770.422
-786.883
-803.04
-818.819
-834.143
-848.934
-863.115
-876.609
-889.341
-901.237
-912.225
-922.237
-931.208
-939.077
-945.788
-951.29
-955.537
-958.491
-960.117
-960.391
-959.293
-956.809
-952.936
-947.673
-941.032
-933.029
-923.688
-913.041
-901.128
-887.996
-873.699
-858.298
-841.862
-824.465
-806.187
-787.112
-767.332
-746.94
-726.036
-704.721
-683.099
-661.276
-639.359
-617.456
-595.673
-574.116
-552.887
-532.086
-511.811
-492.152
-473.199
-455.035
-437.737
-421.378
-406.026
-391.741
-378.576
-366.579
-355.788
-346.235
-337.942
-330.924
-325.185
-320.722
-317.524
-315.573
-314.844
-315.302
-316.91
-319.618
-323.376
-328.124
-333.797
-340.326
-347.636
-355.65
-364.288
-373.468
-383.108
-393.126
-403.437
-413.96
-424.612
-435.312
-445.977
-456.528
-466.884
-476.967
-486.7
-496.01
-504.824
-513.077
-520.709
-527.667
-533.905
-539.387
-544.078
-547.949
-550.98
-553.153
-554.449
-554.852
-554.343
-552.905
-550.534
-547.228
-542.992
-537.841
-531.785
-524.845
-517.054
-508.438
-499.02
-488.813
-477.808
-466.008
-453.454
-440.198
-426.315
-411.906
-397.057
-381.858
-366.43
-350.857
-335.193
-319.457
-303.601
-287.566
-271.34
-254.938
-238.426
-221.866
-205.247
-188.54
-171.707
-154.642
-137.26
-119.454
-101.027
-81.854
-61.926
-41.307
-20.212
1.085
22.408
43.633
64.676
85.495
105.97
125.97
145.404
164.115
181.939
198.675
213.994
227.651
239.579
249.812
258.565
266.166
272.823
278.702
283.961
288.692
293.025
297.091
300.937
304.646
308.341
312.189
316.47
321.42
327.119
333.569
340.641
348.111
355.836
363.702
371.566
379.351
386.983
394.399
401.614
408.648
415.474
422.031
428.203
433.875
439.009
443.606
447.711
451.416
454.783
457.867
460.747
463.475
466.083
468.594
470.992
473.245
475.348
477.311
479.156
480.914
482.604
484.232
485.805
487.322
488.781
490.18
491.509
492.758
493.93
495.028
496.065
497.057
498.015
498.947
499.859
500.754
501.629
502.479
503.294
504.059
504.761
505.383
505.903
506.299
506.548
506.624
506.505
506.166
505.581
504.72
503.554
502.057
500.2
497.957
495.299
492.197
488.631
484.586
480.054
475.036
469.529
463.525
457.008
449.959
442.361
434.207
425.493
416.218
406.394
396.044
385.209
373.957
362.349
350.449
338.31
325.961
313.452
300.859
288.3
275.949
263.955
252.412
241.377
230.865
220.911
211.604
202.93
194.745
186.998
179.711
173.153
167.922
164.278
162.056
161.006
160.731
160.743
160.709
159.76
156.385
149.937
140.663
129.419
117.876
107.531
99.344
94.938
96.571
105.423
121.666
144.352
171.226
200.54
231.211
261.602
289.702
314.071
333.82
349.071
361.018
370.263
376.827
380.904
382.698
382.39
380.173
375.804
368.58
358.146
344.557
328.04
309.086
288.189
265.703
242.057
217.801
193.461
169.48
146.196
123.799
102.425
82.228
63.331
45.834
29.78
15.109
1.705
-10.605
-22.046
-32.786
-42.942
-52.639
-61.991
-71.084
-79.973
-88.654
-97.071
-105.177
-112.935
-120.3
-127.217
-133.592
-139.309
-144.236
-148.231
-151.186
-153.024
-153.681
-153.11
-151.284
-148.193
-143.859
-138.334
-131.661
-123.881
-115.04
-105.187
-94.39
-82.722
-70.256
-57.07
-43.238
-28.828
-13.908
1.464
17.233
33.339
49.72
66.319
83.065
99.884
116.699
133.426
149.984
166.299
182.297
197.914
213.098
227.788
241.921
255.431
268.232
280.267
291.499
301.889
311.427
320.127
328.024
335.205
341.766
347.764
353.236
358.19
362.581
366.388
369.576
372.098
373.961
375.164
375.686
375.549
374.749
373.224
370.885
367.561
363.037
357.221
350.082
341.647
332.074
321.535
310.252
298.54
286.637
274.744
263.071
251.738
240.874
230.694
221.426
213.378
206.933
202.327
199.702
199.149
200.577
203.842
208.717
214.82
221.821
229.467
237.516
245.817
254.238
262.558
270.545
277.927
284.343
289.526
293.278
295.407
295.854
294.628
291.801
287.592
282.205
275.756
268.327
259.921
250.514
240.156
228.929
216.923
204.276
191.101
177.501
163.622
149.578
135.409
121.085
106.464
91.415
75.903
59.965
43.713
27.282
10.754
-5.823
-22.384
-38.847
-55.144
-71.246
-87.199
-103.062
-118.775
-134.127
-148.795
-162.482
-174.995
-186.219
-196.104
-204.607
-211.673
-217.271
-221.4
-224.068
-225.219
-224.701
-222.278
-217.693
-210.84
-201.805
-190.771
-177.895
-163.272
-146.972
-129.036
-109.513
-88.397
-65.577
-40.947
-14.48
13.702
43.324
74.021
105.378
137.052
168.768
200.253
231.235
261.456
290.692
318.721
345.297
370.06
392.512
412.204
428.816
442.19
452.302
459.19
462.967
463.803
461.949
457.743
451.475
443.359
433.55
422.193
409.483
395.728
381.323
366.599
351.804
337.117
322.66
308.553
294.853
281.527
268.433
255.356
242.159
228.794
215.27
201.61
187.815
173.84
159.636
145.212
130.595
115.813
100.893
85.846
70.719
55.614
40.684
26.105
12.001
-1.551
-14.505
-26.825
-38.482
-49.45
-59.732
-69.364
-78.377
-86.792
-94.626
-101.89
-108.611
-114.839
-120.632
-126.049
-131.144
-135.964
-140.555
-144.966
-149.24
-153.416
-157.521
-161.578
-165.612
-169.656
-173.742
-177.9
-182.16
-186.548
-191.088
-195.81
-200.733
-205.874
-211.244
-216.851
-222.698
-228.789
-235.121
-241.689
-248.485
-255.499
-262.717
-270.127
-277.712
-285.452
-293.326
-301.312
-309.386
-317.526
-325.706
-333.901
-342.085
-350.236
-358.329
-366.341
-374.25
-382.032
-389.665
-397.127
-404.397
-411.455
-418.281
-424.855
-431.161
-437.183
-442.908
-448.324
-453.42
-458.187
-462.619
-466.71
-470.457
-473.858
-476.912
-479.62
-481.984
-484.007
-485.693
-487.049
-488.079
-488.792
-489.194
-489.292
-489.095
-488.612
-487.85
-486.818
-485.526
-483.982
-482.195
-480.174
-477.928
-475.466
-472.799
-469.935
-466.887
-463.664
-460.279
-456.742
-453.067
-449.265
-445.348
-441.329
-437.22
-433.032
-428.778
-424.47
-420.12
-415.741
-411.344
-406.943
-402.547
-398.17
-393.82
-389.509
-385.244
-381.033
-376.884
-372.803
-368.795
-364.867
-361.024
-357.27
-353.61
-350.046
-346.58
-343.21
-339.932
-336.741
-333.629
-330.586
-327.599
-324.656
-321.742
-318.842
-315.937
-313.009
-310.038
-307.002
-303.878
-300.642
-297.268
-293.731
-290.006
-286.072
-281.906
-277.49
-272.807
-267.844
-262.59
-257.039
-251.182
-245.014
-238.526
-231.713
-224.57
-217.089
-209.269
-201.106
-192.608
-183.786
-174.662
-165.263
-155.624
-145.781
-135.773
-125.64
-115.42
-105.153
-94.875
-84.617
-74.418
-64.327
-54.404
-44.725
-35.351
-26.327
-17.685
-9.435
-1.566
5.958
13.179
20.152
26.907
33.446
39.735
45.7
51.264
56.344
60.898
64.93
68.438
71.41
73.819
75.622
76.728
77.013
76.325
74.481
71.368
66.952
61.296
54.568
46.992
38.844
30.348
21.664
12.942
4.317
-4.069
-12.068
-19.483
-26.081
-31.578
-35.628
-37.972
-38.446
-37.017
-33.791
-28.97
-22.846
-15.67
-7.64
1.074
10.343
20.051
30.085
40.312
50.581
60.678
70.319
79.272
87.357
94.5
100.728
106.15
110.95
115.29
119.302
123.086
126.692
130.149
133.466
136.644
139.675
142.597
145.492
148.435
151.491
154.681
157.98
161.331
164.643
167.829
170.815
173.543
175.985
178.132
179.991
181.589
182.964
184.14
185.127
185.926
186.535
186.957
187.206
187.3
187.26
187.112
186.88
186.585
186.243
185.861
185.44
184.974
184.451
183.858
183.184
182.419
181.557
180.591
179.515
178.322
177.008
175.566
173.989
172.268
170.391
168.35
166.135
163.738
161.152
158.372
155.393
152.215
148.838
145.264
141.497
137.544
133.412
129.11
124.651
120.045
115.308
110.456
105.504
100.472
95.379
90.245
85.093
79.942
74.814
69.728
64.705
59.763
54.92
50.192
45.595
41.145
36.855
32.739
28.807
25.069
21.532
18.2
15.075
12.157
9.444
6.929
4.605
2.462
0.487
-1.332
-3.012
-4.569
-6.021
-7.386
-8.684
-9.934
-11.156
-12.368
-13.588
-14.834
-16.122
-17.466
-18.879
-20.373
-21.956
-23.636
-25.418
-27.303
-29.293
-31.384
-33.573
-35.852
-38.209
-40.633
-43.108
-45.615
-48.133
-50.638
-53.105
-55.505
-57.809
-59.986
-62.002
-63.825
-65.42
-66.756
-67.797
-68.513
-68.872
-68.845
-68.405
-67.527
-66.189
-64.372
-62.059
-59.237
-55.898
-52.037
-47.65
-42.741
-37.315
-31.383
-24.956
-18.053
-10.695
-2.906
5.286
13.849
22.749
31.948
41.405
51.076
60.915
70.874
80.904
90.952
100.968
110.898
120.69
130.29
139.648
148.713
157.435
165.767
173.664
181.084
187.986
194.334
200.093
205.235
209.733
213.562
216.705
219.144
220.867
221.865
222.134
221.669
220.474
218.55
215.907
212.554
208.505
203.776
198.386
192.357
185.713
178.48
170.687
162.363
153.54
144.25
134.528
124.409
113.927
103.119
92.021
80.669
69.098
57.343
45.441
33.423
21.324
9.174
-2.993
-15.149
-27.264
-39.31
-51.258
-63.082
-74.756
-86.254
-97.554
-108.631
-119.463
-130.03
-140.311
-150.288
-159.943
-169.259
-178.223
-186.819
-195.036
-202.863
-210.291
-217.312
-223.919
-230.108
-235.875
-241.219
-246.138
-250.635
-254.709
-258.366
-261.609
-264.443
-266.875
-268.914
-270.568
-271.848
-272.765
-273.332
-273.564
-273.474
-273.079
-272.395
-271.441
-270.233
-268.79
-267.132
-265.277
-263.244
-261.051
-258.718
-256.262
-253.699
-251.046
-248.318
-245.529
-242.691
-239.815
-236.911
-233.988
-231.052
-228.111
-225.167
-222.224
-219.285
-216.349
-213.416
-210.485
-207.552
-204.614
-201.667
-198.703
-195.719
-192.707
-189.66
-186.572
-183.435
-180.244
-176.991
-173.671
-170.279
-166.811
-163.264
-159.637
-155.929
-152.142
-148.281
-144.349
-140.353
-136.304
-132.21
-128.085
-123.941
-119.795
-115.664
-111.564
-107.516
-103.538
-99.651
-95.877
-92.237
-88.751
-85.441
-82.327
-79.428
-76.763
-74.35
-72.204
-70.34
-68.769
-67.501
-66.545
-65.904
-65.581
-65.575
-65.882
-66.494
-67.4
-68.587
-70.037
-71.73
-73.641
-75.744
-78.01
-80.406
-82.899
-85.451
-88.026
-90.582
-93.08
-95.478
-97.735
-99.81
-101.66
-103.247
-104.53
-105.472
-106.038
-106.193
-105.907
-105.15
-103.898
-102.129
-99.824
-96.968
-93.551
-89.567
-85.014
-79.895
-74.217
-67.991
-61.234
-53.965
-46.21
-37.996
-29.357
-20.327
-10.947
-1.257
8.697
18.87
29.213
39.678
50.214
60.773
71.303
81.755
92.081
102.233
112.165
121.83
131.188
140.196
148.816
157.015
164.76
172.023
178.779
185.006
190.687
195.808
200.359
204.334
207.729
210.546
212.789
214.466
215.59
216.174
216.235
215.793
214.869
213.486
211.666
209.433
206.81
203.82
200.485
196.829
192.872
188.632
184.132
179.387
174.418
169.24
163.865
158.303
152.565
146.655
140.578
134.337
127.929
121.353
114.605
107.679
100.57
93.268
85.763
78.043
70.095
61.905
53.459
44.744
35.746
26.455
16.862
6.964
-3.24
-13.749
-24.558
-35.656
-47.027
-58.653
-70.518
-82.602
-94.885
-107.341
-119.94
-132.648
-145.434
-158.256
-171.066
-183.805
-196.408
-208.809
-220.945
-232.754
-244.174
-255.138
-265.576
-275.428
-284.64
-293.151
-300.895
-307.789
-313.727
-318.638
-322.486
-325.252
-326.944
-327.57
-327.12
-325.619
-323.12
-319.642
-315.188
-309.713
-303.11
-295.331
-286.372
-276.27
-265.128
-252.993
-239.852
-225.696
-210.503
-194.248
-176.943
-158.527
-138.868
-117.958
-95.88
-72.838
-49.195
-25.22
-1.093
23.026
47.049
70.83
94.146
116.815
138.677
159.536
179.212
197.424
213.771
228.034
240.142
250.168
258.386
264.973
270.003
273.565
275.717
276.536
276.156
274.644
272.013
268.347
263.76
258.46
252.777
246.899
240.893
234.739
228.278
221.421
214.162
206.465
198.308
189.689
180.612
171.147
161.429
151.531
141.483
131.278
120.841
110.17
99.322
88.381
77.486
66.755
56.285
46.196
36.609
27.611
19.258
11.553
4.477
-1.928
-7.567
-12.336
-16.145
-18.986
-20.899
-21.88
-21.897
-20.934
-19.045
-16.402
-13.1
-8.972
-3.595
3.424
12.158
22.396
33.827
46.202
59.344
72.778
85.191
96.202
106.091
114.269
121.584
126.656
127.425
127.445
129.834
139.069
159.906
188.25
219.513
250.386
276.761
300.34
322.635
342.806
361.406
377.855
392.226
405.726
418.737
431.551
444.534
458.013
472.279
487.26
502.432
517.266
531.48
545.02
557.97
570.311
581.945
592.824
602.972
612.451
621.289
629.445
636.826
643.355
648.995
653.737
657.592
660.567
662.657
663.862
664.184
663.631
662.22
659.97
656.903
653.042
648.413
643.05
636.991
630.279
622.954
615.052
606.605
597.648
588.221
578.368
568.134
557.565
546.705
535.601
524.299
512.849
501.297
489.689
478.068
466.477
454.959
443.554
432.301
421.238
410.398
399.812
389.508
379.511
369.845
360.528
351.576
343.004
334.82
327.034
319.649
312.668
306.091
299.913
294.129
288.731
283.707
279.044
274.726
270.737
267.056
263.661
260.53
257.637
254.958
252.464
250.13
247.926
245.826
243.801
241.826
239.874
237.921
235.943
233.919
231.829
229.653
227.377
224.985
222.467
219.812
217.012
214.064
210.962
207.707
204.301
200.746
197.049
193.217
189.261
185.193
181.026
176.776
172.461
168.099
163.712
159.32
154.947
150.615
146.349
142.172
138.108
134.18
130.412
126.824
123.436
120.269
117.339
114.66
112.246
110.107
108.252
106.685
105.41
104.426
103.732
103.321
103.186
103.315
103.696
104.312
105.145
106.173
107.373
108.721
110.187
111.743
113.358
115
116.634
118.227
119.742
121.146
122.401
123.474
124.329
124.934
125.256
125.265
124.933
124.234
123.146
121.648
119.722
117.357
114.54
111.265
107.529
103.333
98.681
93.58
88.043
82.084
75.722
68.98
61.881
54.454
46.729
38.741
30.523
22.114
13.553
4.88
-3.863
-12.634
-21.388
-30.084
-38.679
-47.13
-55.397
-63.441
-71.224
-78.711
-85.869
-92.669
-99.085
-105.092
-110.671
-115.807
-120.486
-124.7
-128.445
-131.722
-134.532
-136.885
-138.79
-140.264
-141.324
-141.99
-142.289
-142.245
-141.889
-141.252
-140.368
-139.271
-137.998
-136.586
-135.073
-133.498
-131.898
-130.312
-128.774
-127.322
-125.989
-124.806
-123.803
-123.009
-122.447
-122.14
-122.106
-122.36
-122.916
-123.781
-124.96
-126.455
-128.263
-130.379
-132.794
-135.496
-138.47
-141.699
-145.161
-148.835
-152.697
-156.719
-160.875
-165.135
-169.469
-173.846
-178.237
-182.611
-186.937
-191.188
-195.334
-199.35
-203.212
-206.897
-210.384
-213.658
-216.702
-219.504
-222.057
-224.355
-226.395
-228.181
-229.716
-231.009
-232.074
-232.925
-233.583
-234.067
-234.405
-234.623
-234.751
-234.822
-234.87
-234.93
-235.041
-235.24
-235.566
-236.058
-236.756
-237.697
-238.919
-240.458
-242.347
-244.62
-247.306
-250.432
-254.023
-258.1
-262.681
-267.779
-273.407
-279.569
-286.268
-293.502
-301.266
-309.547
-318.333
-327.603
-337.335
-347.501
-358.072
-369.014
-380.288
-391.855
-403.671
-415.691
-427.866
-440.148
-452.485
-464.826
-477.117
-489.308
-501.345
-513.178
-524.756
-536.032
-546.957
-557.489
-567.583
-577.202
-586.309
-594.869
-602.855
-610.239
-616.999
-623.117
-628.579
-633.375
-637.498
-640.946
-643.721
-645.829
-647.279
-648.085
-648.263
-647.833
-646.817
-645.241
-643.135
-640.527
-637.451
-633.942
-630.034
-625.763
-621.167
-616.282
-611.145
-605.794
-600.263
-594.589
-588.806
-582.948
-577.045
-571.128
-565.227
-559.367
-553.575
-547.873
-542.281
-536.82
-531.506
-526.354
-521.376
-516.586
-511.991
-507.602
-503.424
-499.463
-495.724
-492.21
-488.923
-485.865
-483.036
-480.435
-478.064
-475.922
-474.008
-472.324
-470.869
-469.645
-468.654
-467.898
-467.379
-467.099
-467.061
-467.268
-467.723
-468.429
-469.389
-470.608
-472.088
-473.833
-475.845
-478.126
-480.677
-483.495
-486.577
-489.919
-493.513
-497.349
-501.413
-505.693
-510.171
-514.83
-519.649
-524.605
-529.673
-534.825
-540.028
-545.249
-550.449
-555.589
-560.624
-565.509
-570.199
-574.644
-578.798
-582.61
-586.029
-589.005
-591.487
-593.424
-594.767
-595.463
-595.465
-594.728
-593.211
-590.877
-587.692
-583.629
-578.667
-572.791
-565.996
-558.276
-549.629
-540.059
-529.575
-518.187
-505.913
-492.768
-478.774
-463.964
-448.382
-432.077
-415.113
-397.555
-379.473
-360.949
-342.062
-322.892
-303.522
-284.023
-264.462
-244.919
-225.478
-206.232
-187.293
-168.748
-150.664
-133.11
-116.133
-99.754
-83.975
-68.75
-54.018
-39.761
-25.976
-12.692
0.017
12.101
23.506
34.166
44.073
53.21
61.543
69.087
75.834
81.721
86.664
90.496
93.011
94.128
93.834
92.173
89.321
85.462
80.832
75.76
70.507
65.298
60.367
55.864
51.944
48.854
46.859
46.305
47.612
51.047
56.786
64.956
75.508
88.34
103.262
119.925
138.03
157.354
177.683
198.889
220.859
243.385
266.259
289.227
311.952
334.185
355.735
376.415
396.166
414.991
432.955
450.256
467.066
483.468
499.522
515.224
530.536
545.468
560.013
574.154
587.929
601.358
614.442
627.208
639.626
651.627
663.121
673.961
684.007
693.171
701.385
708.611
714.838
720.052
724.257
727.488
729.761
731.088
731.483
730.948
729.496
727.159
723.975
719.993
715.267
709.845
703.77
697.089
689.841
682.063
673.79
665.047
655.861
646.269
636.308
626.019
615.447
604.631
593.615
582.442
571.154
559.789
548.381
536.964
525.566
514.217
502.944
491.771
480.72
469.813
459.068
448.502
438.132
427.97
418.026
408.309
398.826
389.58
380.574
371.809
363.284
354.996
346.94
339.113
331.507
324.113
316.921
309.918
303.091
296.424
289.901
283.504
277.216
271.021
264.901
258.841
252.827
246.843
240.877
234.916
228.948
222.962
216.949
210.899
204.806
198.661
192.461
186.202
179.881
173.496
167.045
160.529
153.948
147.304
140.596
133.826
126.996
120.111
113.177
106.199
99.179
92.115
85.011
77.877
70.71
63.492
56.209
48.841
41.384
33.857
26.257
18.55
10.743
2.884
-4.994
-12.852
-20.697
-28.616
-36.648
-44.727
-52.944
-61.597
-70.77
-80.383
-90.484
-100.783
-111.817
-125.382
-141.167
-157.495
-171.721
-178.753
-178.692
-176.676
-177.751
-189.095
-211.414
-237.811
-262.925
-281.052
-290.941
-297.665
-304.386
-313.163
-324.675
-336.786
-348.439
-359.657
-370.295
-380.598
-390.594
-399.936
-408.47
-416.182
-423.007
-428.873
-433.736
-437.558
-440.317
-442.018
-442.64
-442.128
-440.448
-437.582
-433.514
-428.237
-421.749
-414.048
-405.144
-395.059
-383.822
-371.466
-358.034
-343.571
-328.133
-311.781
-294.581
-276.605
-257.931
-238.639
-218.815
-198.55
-177.934
-157.064
-136.035
-114.946
-93.894
-72.978
-52.293
-31.934
-11.994
7.44
26.279
44.441
61.846
78.417
94.082
108.772
122.425
134.981
146.388
156.6
165.576
173.285
179.701
184.803
188.579
191.021
192.126
191.897
190.341
187.472
183.31
177.878
171.206
163.329
154.287
144.124
132.886
120.623
107.382
93.211
78.164
62.292
45.648
28.287
10.265
-8.362
-27.532
-47.184
-67.253
-87.675
-108.386
-129.328
-150.439
-171.66
-192.935
-214.209
-235.441
-256.595
-277.632
-298.508
-319.178
-339.59
-359.697
-379.454
-398.806
-417.708
-436.114
-453.984
-471.298
-488.039
-504.2
-519.771
-534.702
-548.924
-562.348
-574.89
-586.528
-597.271
-607.129
-616.146
-624.387
-631.894
-638.837
-645.386
-651.448
-656.92
-661.643
-665.37
-668.228
-670.521
-672.21
-673.298
-674.191
-675.026
-676.12
-677.904
-679.673
-680.601
-680.49
-678.856
-674.997
-668.845
-659.855
-647.495
-632.883
-616.675
-598.837
-579.992
-560.522
-540.329
-520.223
-500.656
-480.728
-460.601
-440.661
-420.708
-401.287
-382.94
-365.463
-349.5
-336.474
-327.041
-322.244
-323.061
-329.427
-341.121
-357.524
-376.841
-396.424
-413.382
-424.416
-426.641
-418.102
-397.758
-365.826
-323.461
-273.071
-217.779
-160.547
-104.407
-51.772
-3.807
39.098
76.88
110.531
141.239
169.642
197.062
224.372
251.523
278.58
305.539
331.955
357.746
383.155
407.643
430.957
453.266
474.412
494.425
513.405
531.101
547.284
562.191
576
588.773
600.676
611.648
621.62
630.657
638.754
645.785
651.602
656.085
659.167
660.892
661.351
660.621
658.789
655.942
652.182
647.614
642.33
636.413
629.933
622.971
615.627
608.014
600.259
592.483
584.796
577.301
570.096
563.268
556.899
551.065
545.825
541.241
537.379
534.298
532.057
530.71
530.304
530.88
532.474
535.112
538.81
543.577
549.409
556.297
564.224
573.165
583.088
593.956
605.723
618.341
631.756
645.907
660.728
676.149
692.094
708.486
725.242
742.279
759.509
776.847
794.205
811.494
828.629
845.521
862.084
878.229
893.871
908.925
923.307
936.937
949.736
961.63
972.549
982.429
991.21
998.838
1005.265
1010.448
1014.349
1016.94
1018.193
1018.093
1016.624
1013.782
1009.567
1003.985
997.049
988.776
979.192
968.324
956.207
942.881
928.388
912.779
896.104
878.421
859.791
840.279
819.954
798.887
777.152
754.827
731.991
708.723
685.104
661.216
637.14
612.957
588.746
564.586
540.552
516.721
493.162
469.947
447.139
424.802
402.994
381.772
361.184
341.28
322.102
303.69
286.077
269.295
253.371
238.327
224.181
210.947
198.635
187.25
176.794
167.264
158.655
150.956
144.154
138.234
133.178
128.964
125.569
122.968
121.136
120.045
119.666
119.969
120.924
122.502
124.672
127.403
130.665
134.429
138.665
143.344
148.437
153.917
159.756
165.928
172.405
179.163
186.176
193.421
200.873
208.51
216.308
224.246
232.301
240.453
248.68
256.961
265.273
273.596
281.907
290.183
298.403
306.542
314.577
322.484
330.238
337.814
345.187
352.329
359.216
365.82
372.114
378.071
383.664
388.865
393.648
397.987
401.854
405.225
408.074
410.377
412.111
413.254
413.786
413.686
412.936
411.522
409.428
406.642
403.155
398.959
394.048
388.42
382.073
375.011
367.236
358.757
349.582
339.722
329.192
318.007
306.185
293.747
280.714
267.112
252.967
238.307
223.161
207.561
191.54
175.134
158.376
141.305
123.959
106.377
88.597
70.661
52.61
34.483
16.323
-1.831
-19.937
-37.956
-55.848
-73.574
-91.095
-108.375
-125.376
-142.064
-158.402
-174.357
-189.897
