Name
Date of Birth,"Dec 28, 2003"
Recorded Date,2024-09-19 10:02:27 -0500
Classification,Poor Recording
Symptoms,
Software Version,1.90
Device,"Watch4,4"
Sample Rate,512.711 hertz


Lead,Lead I
Unit,µV

45.804
45.983
46.166
46.348
46.507
46.607
46.619
46.517
46.28
45.904
45.4
44.783
44.079
43.316
42.499
41.626
40.713
39.766
38.786
37.772
36.704
35.551
34.326
33.06
31.683
30.115
28.401
26.533
24.496
22.459
19.958
16.542
12.864
9.13
6.543
6.54
7.56
8.567
8.008
3.747
-2.299
-8.505
-13.753
-16.203
-17.147
-17.894
-18.723
-20.426
-22.522
-24.395
-26.146
-27.688
-29.05
-30.344
-31.481
-32.39
-33.087
-33.571
-33.832
-33.87
-33.69
-33.296
-32.702
-31.926
-30.97
-29.836
-28.534
-27.075
-25.47
-23.733
-21.877
-19.914
-17.86
-15.732
-13.547
-11.32
-9.07
-6.813
-4.568
-2.352
-0.183
1.922
3.945
5.869
7.679
9.359
10.894
12.272
13.478
14.501
15.332
15.96
16.378
16.579
16.558
16.312
15.839
15.138
14.209
13.055
11.679
10.086
8.283
6.276
4.074
1.688
-0.871
-3.59
-6.455
-9.452
-12.564
-15.776
-19.069
-22.426
-25.83
-29.262
-32.705
-36.14
-39.548
-42.911
-46.211
-49.428
-52.546
-55.546
-58.412
-61.129
-63.681
-66.057
-68.244
-70.231
-72.008
-73.568
-74.902
-76.005
-76.873
-77.502
-77.892
-78.042
-77.955
-77.636
-77.091
-76.328
-75.356
-74.188
-72.835
-71.311
-69.629
-67.803
-65.847
-63.773
-61.595
-59.33
-56.991
-54.597
-52.166
-49.719
-47.276
-44.859
-42.484
-40.164
-37.912
-35.737
-33.647
-31.647
-29.744
-27.943
-26.257
-24.704
-23.297
-22.045
-20.946
-19.99
-19.158
-18.427
-17.773
-17.169
-16.594
-16.037
-15.492
-14.975
-14.495
-14.059
-13.656
-13.246
-12.794
-12.273
-11.666
-10.971
-10.206
-9.4
-8.59
-7.827
-7.146
-6.565
-6.084
-5.675
-5.314
-4.954
-4.579
-4.232
-3.903
-3.545
-3.064
-2.268
-0.94
1.089
3.982
7.909
12.804
18.461
24.602
30.686
36.199
40.763
44.076
46.084
47.216
48.133
49.501
52.342
57.597
65.968
78.352
95.29
116.455
141.306
168.771
196.531
223.116
247.618
268.954
287.484
301.513
306.743
299.818
277.867
241.812
197.108
147.428
94.943
41.489
-12.346
-61.122
-96.27
-114.044
-112.971
-96.854
-74.557
-49.754
-25.657
-5.654
10.622
20.516
23.171
22.15
19.678
19.07
22.158
27.049
32.427
37.24
40.96
44.514
48.235
51.83
54.966
57.111
58.113
58.172
57.464
56.162
54.41
52.333
50.097
47.879
45.795
43.901
42.22
40.755
39.518
38.53
37.801
37.322
37.07
37.014
37.128
37.389
37.77
38.24
38.758
39.281
39.779
40.237
40.65
41.018
41.34
41.615
41.848
42.05
42.233
42.404
42.568
42.728
42.886
43.051
43.231
43.432
43.657
43.905
44.175
44.466
44.773
45.092
45.417
45.738
46.051
46.35
46.63
46.887
47.117
47.313
47.471
47.587
47.656
47.672
47.629
47.523
47.347
47.098
46.773
46.367
45.878
45.303
44.641
43.89
43.049
42.117
41.094
39.977
38.769
37.468
36.076
34.593
33.021
31.363
29.618
27.792
25.886
23.902
21.844
19.715
17.518
15.258
12.938
10.563
8.137
5.665
3.154
0.607
-1.968
-4.567
-7.182
-9.81
-12.442
-15.074
-17.698
-20.31
-22.901
-25.464
-27.993
-30.48
-32.916
-35.294
-37.606
-39.843
-41.998
-44.062
-46.027
-47.885
-49.629
-51.25
-52.742
-54.096
-55.307
-56.367
-57.271
-58.013
-58.589
-58.995
-59.228
-59.283
-59.161
-58.858
-58.374
-57.709
-56.864
-55.841
-54.641
-53.268
-51.728
-50.024
-48.164
-46.155
-44.006
-41.726
-39.325
-36.814
-34.203
-31.505
-28.733
-25.898
-23.013
-20.092
-17.148
-14.194
-11.243
-8.307
-5.4
-2.533
0.282
3.035
5.714
8.31
10.815
13.219
15.515
17.697
19.757
21.692
23.497
25.167
26.702
28.1
29.361
30.486
31.478
32.338
33.071
33.681
34.172
34.55
34.82
34.987
35.057
35.037
34.931
34.748
34.492
34.169
33.787
33.349
32.863
32.331
31.759
31.148
30.503
29.826
29.119
28.384
27.624
26.838
26.028
25.196
24.34
23.46
22.553
21.618
20.651
19.65
18.611
17.532
16.409
15.24
14.024
12.759
11.444
10.078
8.659
7.186
5.657
4.071
2.426
0.72
-1.047
-2.873
-4.755
-6.689
-8.67
-10.694
-12.753
-14.841
-16.95
-19.075
-21.214
-23.361
-25.511
-27.658
-29.796
-31.919
-34.025
-36.109
-38.16
-40.175
-42.15
-44.091
-46.01
-47.917
-49.812
-51.695
-53.566
-55.423
-57.264
-59.07
-60.807
-62.442
-63.942
-65.295
-66.513
-67.597
-68.542
-69.344
-69.992
-70.496
-70.89
-71.187
-71.383
-71.494
-71.55
-71.632
-71.895
-72.479
-73.496
-75.052
-77.223
-80.037
-83.493
-87.505
-91.887
-96.462
-101.065
-105.512
-109.711
-113.725
-117.706
-121.934
-126.771
-132.408
-138.985
-146.733
-155.654
-165.375
-175.241
-184.206
-191.091
-195.067
-195.273
-190.659
-180.568
-164.793
-143.708
-118.492
-90.513
-61.031
-31.816
-5.027
17.271
32.957
40.52
39.202
28.643
9.265
-17.835
-51.505
-91.591
-138.147
-189.808
-243.005
-290.713
-325.639
-344.48
-348.295
-342.37
-332.683
-322.399
-312.186
-301.207
-289.17
-276.868
-265.503
-256.305
-249.574
-244.946
-241.905
-239.586
-237.145
-234.153
-230.439
-226.054
-221.276
-216.354
-211.486
-206.947
-203.035
-199.892
-197.534
-195.896
-194.79
-194.046
-193.538
-193.107
-192.628
-192.025
-191.233
-190.222
-188.994
-187.541
-185.858
-183.956
-181.832
-179.494
-176.966
-174.268
-171.428
-168.49
-165.491
-162.475
-159.472
-156.5
-153.57
-150.688
-147.854
-145.067
-142.322
-139.607
-136.919
-134.256
-131.614
-128.993
-126.389
-123.796
-121.208
-118.62
-116.025
-113.422
-110.813
-108.199
-105.583
-102.97
-100.366
-97.78
-95.217
-92.684
-90.183
-87.719
-85.293
-82.911
-80.575
-78.286
-76.049
-73.866
-71.74
-69.674
-67.672
-65.734
-63.862
-62.057
-60.317
-58.642
-57.032
-55.484
-53.997
-52.567
-51.193
-49.872
-48.601
-47.377
-46.195
-45.053
-43.945
-42.868
-41.818
-40.79
-39.78
-38.784
-37.799
-36.822
-35.85
-34.88
-33.91
-32.94
-31.968
-30.993
-30.015
-29.035
-28.052
-27.07
-26.089
-25.112
-24.144
-23.187
-22.246
-21.326
-20.433
-19.572
-18.75
-17.972
-17.245
-16.576
-15.972
-15.439
-14.986
-14.619
-14.344
-14.168
-14.098
-14.138
-14.296
-14.574
-14.977
-15.509
-16.171
-16.965
-17.892
-18.951
-20.141
-21.46
-22.904
-24.469
-26.15
-27.94
-29.832
-31.818
-33.889
-36.034
-38.243
-40.505
-42.807
-45.138
-47.485
-49.833
-52.17
-54.482
-56.754
-58.974
-61.126
-63.198
-65.176
-67.048
-68.801
-70.424
-71.907
-73.238
-74.409
-75.413
-76.243
-76.892
-77.358
-77.636
-77.726
-77.628
-77.341
-76.869
-76.216
-75.385
-74.383
-73.217
-71.895
-70.425
-68.818
-67.084
-65.235
-63.282
-61.239
-59.117
-56.93
-54.691
-52.412
-50.106
-47.786
-45.464
-43.152
-40.862
-38.604
-36.389
-34.227
-32.126
-30.093
-28.135
-26.257
-24.463
-22.755
-21.134
-19.601
-18.154
-16.792
-15.512
-14.31
-13.181
-12.12
-11.12
-10.175
-9.276
-8.415
-7.583
-6.771
-5.969
-5.17
-4.365
-3.548
-2.711
-1.848
-0.951
-0.017
0.961
1.988
3.069
4.208
5.407
6.668
7.991
9.373
10.812
12.303
13.84
15.414
17.02
18.65
20.299
21.957
23.618
25.275
26.919
28.546
30.148
31.716
33.241
34.714
36.129
37.48
38.764
39.975
41.107
42.158
43.128
44.017
44.823
45.54
46.151
46.645
47.019
47.27
47.399
47.406
47.299
47.1
46.85
46.596
46.377
46.217
46.125
46.12
46.224
46.456
46.853
47.43
48.204
49.219
50.517
52.121
54.025
56.166
58.42
60.679
62.832
64.752
66.394
67.763
68.949
70.168
71.623
73.453
75.806
78.835
82.499
86.542
90.49
93.617
95.325
95.313
93.318
89.052
82.579
74.513
65.979
58.694
54.406
54.362
59.794
72.075
92.079
119.915
154.842
195.097
238.429
282.76
325.619
363.982
395.096
416.743
427.283
425.907
412.583
387.591
352.636
311.136
265.647
218.159
170.181
121.691
75.515
36.966
9.779
-2.156
1.474
15.79
37.293
61.769
84.384
104.518
120.324
129.704
134.342
134.075
129.444
123.074
114.745
104.864
94.681
83.99
73.727
65.116
58.258
53.125
49.367
46.144
42.786
39.056
34.777
29.781
24.118
17.868
11.123
4.17
-2.686
-9.302
-15.577
-21.461
-26.988
-32.161
-36.961
-41.413
-45.547
-49.378
-52.933
-56.217
-59.232
-61.995
-64.52
-66.819
-68.903
-70.776
-72.437
-73.882
-75.105
-76.098
-76.867
-77.419
-77.762
-77.909
-77.864
-77.639
-77.24
-76.677
-75.955
-75.081
-74.062
-72.908
-71.634
-70.254
-68.786
-67.245
-65.649
-64.012
-62.346
-60.665
-58.98
-57.302
-55.64
-54.004
-52.403
-50.848
-49.348
-47.91
-46.544
-45.253
-44.044
-42.92
-41.882
-40.933
-40.072
-39.298
-38.608
-38.001
-37.473
-37.019
-36.636
-36.318
-36.06
-35.856
-35.698
-35.581
-35.496
-35.437
-35.397
-35.368
-35.342
-35.314
-35.277
-35.224
-35.15
-35.05
-34.917
-34.747
-34.536
-34.279
-33.973
-33.614
-33.199
-32.726
-32.193
-31.601
-30.947
-30.233
-29.457
-28.622
-27.728
-26.776
-25.768
-24.704
-23.588
-22.42
-21.201
-19.935
-18.622
-17.264
-15.863
-14.419
-12.933
-11.406
-9.839
-8.231
-6.582
-4.891
-3.159
-1.384
0.434
2.298
4.207
6.165
8.171
10.228
12.338
14.501
16.72
18.996
21.329
23.721
26.171
28.68
31.247
33.872
36.551
39.284
42.067
44.897
47.769
50.678
53.617
56.581
59.561
62.548
65.535
68.51
71.463
74.383
77.259
80.078
82.828
85.495
88.066
90.527
92.866
95.067
97.117
99.003
100.711
102.228
103.544
104.645
105.521
106.162
106.559
106.704
106.59
106.211
105.563
104.643
103.45
101.984
100.247
98.243
95.978
93.457
90.69
87.687
84.458
81.017
77.377
73.555
69.567
65.432
61.17
56.801
52.347
47.83
43.274
38.702
34.14
29.609
25.134
20.738
16.445
12.279
8.261
4.414
0.759
-2.685
-5.899
-8.864
-11.566
-13.991
-16.129
-17.969
-19.504
-20.727
-21.636
-22.227
-22.502
-22.46
-22.106
-21.444
-20.482
-19.231
-17.704
-15.915
-13.88
-11.619
-9.154
-6.506
-3.696
-0.747
2.321
5.484
8.72
12.009
15.327
18.655
21.97
25.248
28.466
31.603
34.641
37.564
40.355
42.999
45.482
47.797
49.933
51.883
53.634
55.164
56.458
57.511
58.32
58.887
59.218
59.32
59.214
58.94
58.539
58.053
57.514
56.927
56.307
55.682
55.08
54.542
54.091
53.722
53.453
53.32
53.34
53.516
53.798
54.066
54.219
54.178
53.869
53.226
52.21
50.824
49.16
47.409
45.772
44.414
43.469
43.092
43.348
44.11
45.111
45.889
45.959
45.079
43.03
39.489
34.417
28.229
21.744
16.345
13.49
14.187
19.533
30.849
49.032
74.392
106.419
143.554
183.935
225.884
267.155
304.896
336.326
358.882
370.813
371.274
359.706
335.916
300.759
256.814
207.184
154.475
101.675
50.308
2.074
-38.341
-68.871
-87.954
-93.146
-87.757
-73.81
-52.702
-30.825
-10.646
5.971
16.107
22.297
26.131
28.337
31.244
34.698
38.638
43.447
48.468
53.986
60.197
66.873
74.013
80.931
86.892
91.651
95.039
97.069
97.848
97.319
95.438
92.385
88.374
83.617
78.333
72.644
66.665
60.536
54.373
48.255
42.221
36.299
30.512
24.921
19.607
14.631
10.02
5.783
1.905
-1.655
-4.939
-8.01
-10.965
-13.87
-16.765
-19.68
-22.61
-25.551
-28.51
-31.493
-34.508
-37.567
-40.667
-43.803
-46.974
-50.163
-53.349
-56.498
-59.556
-62.485
-65.263
-67.874
-70.316
-72.586
-74.682
-76.603
-78.359
-79.955
-81.393
-82.676
-83.802
-84.77
-85.59
-86.27
-86.824
-87.264
-87.597
-87.83
-87.969
-88.02
-87.986
-87.869
-87.665
-87.375
-86.999
-86.54
-86
-85.382
-84.687
-83.916
-83.071
-82.154
-81.164
-80.103
-78.968
-77.76
-76.476
-75.119
-73.686
-72.179
-70.597
-68.941
-67.213
-65.415
-63.548
-61.616
-59.62
-57.566
-55.457
-53.299
-51.097
-48.859
-46.591
-44.303
-42.003
-39.7
-37.405
-35.127
-32.877
-30.664
-28.5
-26.395
-24.36
-22.405
-20.541
-18.778
-17.126
-15.593
-14.191
-12.925
-11.804
-10.834
-10.021
-9.37
-8.884
-8.566
-8.417
-8.437
-8.626
-8.982
-9.501
-10.18
-11.012
-11.99
-13.108
-14.357
-15.728
-17.21
-18.793
-20.466
-22.217
-24.034
-25.906
-27.82
-29.764
-31.726
-33.694
-35.659
-37.609
-39.535
-41.427
-43.279
-45.084
-46.835
-48.527
-50.158
-51.724
-53.223
-54.657
-56.025
-57.33
-58.575
-59.764
-60.903
-61.999
-63.059
-64.09
-65.103
-66.106
-67.109
-68.123
-69.157
-70.224
-71.333
-72.496
-73.722
-75.023
-76.407
-77.884
-79.462
-81.148
-82.947
-84.864
-86.903
-89.066
-91.353
-93.764
-96.297
-98.951
-101.719
-104.598
-107.58
-110.657
-113.82
-117.059
-120.361
-123.714
-127.104
-130.516
-133.935
-137.346
-140.732
-144.078
-147.366
-150.581
-153.704
-156.721
-159.612
-162.363
-164.957
-167.378
-169.612
-171.646
-173.469
-175.07
-176.441
-177.575
-178.466
-179.108
-179.499
-179.636
-179.518
-179.144
-178.515
-177.635
-176.51
-175.145
-173.548
-171.73
-169.701
-167.476
-165.067
-162.488
-159.753
-156.875
-153.869
-150.748
-147.526
-144.221
-140.845
-137.414
-133.944
-130.453
-126.955
-123.466
-119.998
-116.562
-113.166
-109.822
-106.537
-103.319
-100.177
-97.12
-94.163
-91.319
-88.608
-86.045
-83.643
-81.407
-79.342
-77.439
-75.681
-74.055
-72.534
-71.102
-69.749
-68.463
-67.244
-66.088
-64.986
-63.926
-62.88
-61.814
-60.691
-59.471
-58.13
-56.689
-55.202
-53.736
-52.394
-51.239
-50.339
-49.805
-49.64
-49.772
-50.064
-50.259
-50.151
-49.687
-48.759
-47.226
-45.226
-42.988
-40.92
-39.821
-40.245
-42.461
-46.848
-53.564
-62.232
-72.249
-82.502
-91.176
-96.766
-97.958
-93.266
-81.745
-63.177
-37.855
-6.946
27.518
63.476
98.506
129.725
154.637
171.181
177.735
173.402
157.908
131.968
97.727
57.756
14.174
-32.42
-82.256
-133.63
-182.275
-221.689
-246.084
-253.419
-245.39
-226.052
-198.952
-166.928
-133.024
-100.982
-75.446
-59.388
-52.474
-51.495
-52.341
-52.527
-51.957
-52.377
-55.049
-59.664
-64.98
-69.201
-71.318
-71.336
-69.602
-66.656
-62.987
-59.029
-55.125
-51.563
-48.503
-45.944
-43.839
-42.092
-40.528
-38.929
-37.166
-35.173
-32.94
-30.526
-27.962
-25.272
-22.514
-19.757
-17.06
-14.468
-12.005
-9.667
-7.455
-5.375
-3.43
-1.624
0.048
1.598
3.04
4.38
5.62
6.761
7.805
8.761
9.639
10.448
11.199
11.902
12.571
13.218
13.857
14.501
15.161
15.846
16.565
17.328
18.144
19.028
19.991
21.045
22.201
23.471
24.865
26.392
28.059
29.872
31.835
33.95
36.221
38.648
41.232
43.972
46.868
49.917
53.115
56.458
59.939
63.553
67.289
71.138
75.089
79.132
83.253
87.441
91.68
95.959
100.261
104.572
108.877
113.161
117.408
121.603
125.729
129.773
133.719
137.553
141.264
144.837
148.263
151.53
154.63
157.554
160.294
162.845
165.2
167.356
169.31
171.06
172.604
173.944
175.081
176.018
176.757
177.303
177.663
177.841
177.845
177.683
177.362
176.892
176.281
175.54
174.677
173.704
172.63
171.465
170.221
168.906
167.531
166.105
164.637
163.135
161.608
160.062
158.505
156.943
155.381
153.826
152.281
150.751
149.238
147.747
146.278
144.834
143.415
142.023
140.659
139.321
138.01
136.726
135.467
134.232
133.02
131.831
130.663
129.514
128.383
127.269
126.172
125.09
124.023
122.971
121.935
120.914
119.91
118.925
117.96
117.016
116.097
115.205
114.342
113.511
112.716
111.96
111.246
110.578
109.958
109.391
108.879
108.425
108.033
107.704
107.443
107.25
107.129
107.081
107.109
107.214
107.398
107.66
108.001
108.421
108.918
109.491
110.138
110.856
111.641
112.491
113.399
114.361
115.373
116.427
117.518
118.638
119.781
120.939
122.106
123.272
124.432
125.579
126.704
127.802
128.865
129.886
130.858
131.774
132.625
133.404
134.102
134.712
135.226
135.638
135.94
136.127
136.192
136.132
135.94
135.613
135.147
134.539
133.785
132.883
131.832
130.632
129.284
127.789
126.149
124.368
122.449
120.394
118.206
115.888
113.442
110.872
108.184
105.383
102.479
99.482
96.402
93.254
90.049
86.799
83.517
80.212
76.894
73.573
70.258
66.958
63.682
60.438
57.231
54.066
50.947
47.876
44.857
41.896
39.002
36.184
33.455
30.826
28.31
25.925
23.691
21.63
19.765
18.117
16.715
15.602
14.805
14.34
14.197
14.337
14.71
15.273
15.963
16.718
17.522
18.398
19.408
20.657
22.221
24.114
26.319
28.8
31.349
33.622
35.259
35.884
35.242
33.263
29.974
25.426
20.014
14.445
9.434
5.727
3.96
4.634
8.186
15.036
25.313
38.715
54.882
73.431
93.252
112.461
129.426
142.824
153.04
161.991
170.073
175.474
173.488
158.51
127.016
79.253
21.407
-37.42
-87.21
-119.67
-133.165
-131.312
-120.806
-108.106
-96.047
-83.898
-69.272
-51.621
-31.97
-12.165
5.089
18.615
28.354
33.965
35.885
35.154
32.351
28.256
23.926
19.764
16.133
13.715
12.689
12.872
14.16
16.146
18.27
20.366
22.29
23.753
24.696
25.119
25.014
24.593
24.115
23.667
23.305
23.068
22.918
22.852
22.873
22.911
22.885
22.745
22.445
21.984
21.386
20.662
19.815
18.849
17.763
16.567
15.276
13.897
12.43
10.868
9.207
7.448
5.595
3.652
1.619
-0.506
-2.729
-5.05
-7.475
-10.005
-12.644
-15.399
-18.278
-21.287
-24.43
-27.71
-31.129
-34.689
-38.392
-42.237
-46.224
-50.352
-54.618
-59.022
-63.562
-68.233
-73.032
-77.951
-82.984
-88.12
-93.349
-98.657
-104.032
-109.457
-114.917
-120.394
-125.871
-131.329
-136.749
-142.112
-147.397
-152.583
-157.65
-162.578
-167.345
-171.933
-176.322
-180.493
-184.431
-188.118
-191.54
-194.684
-197.538
-200.093
-202.34
-204.271
-205.883
-207.172
-208.136
-208.779
-209.101
-209.11
-208.812
-208.218
-207.338
-206.187
-204.779
-203.132
-201.263
-199.192
-196.94
-194.528
-191.98
-189.318
-186.567
-183.749
-180.889
-178.011
-175.138
-172.292
-169.496
-166.77
-164.134
-161.607
-159.204
-156.942
-154.834
-152.892
-151.126
-149.545
-148.154
-146.959
-145.961
-145.161
-144.558
-144.149
-143.928
-143.89
-144.025
-144.325
-144.778
-145.371
-146.092
-146.927
-147.859
-148.874
-149.956
-151.087
-152.253
-153.435
-154.618
-155.786
-156.925
-158.019
-159.055
-160.02
-160.903
-161.693
-162.381
-162.959
-163.421
-163.759
-163.972
-164.054
-164.006
-163.826
-163.515
-163.074
-162.508
-161.819
-161.012
-160.092
-159.066
-157.939
-156.718
-155.411
-154.024
-152.565
-151.043
-149.463
-147.832
-146.158
-144.445
-142.699
-140.924
-139.123
-137.3
-135.455
-133.59
-131.704
-129.796
-127.864
-125.905
-123.915
-121.888
-119.817
-117.697
-115.518
-113.272
-110.95
-108.542
-106.04
-103.433
-100.713
-97.869
-94.893
-91.776
-88.509
-85.084
-81.495
-77.734
-73.796
-69.677
-65.374
-60.885
-56.211
-51.354
-46.316
-41.103
-35.72
-30.175
-24.476
-18.634
-12.661
-6.57
-0.375
5.906
12.254
18.648
25.066
31.484
37.879
44.227
50.503
56.684
62.748
68.674
74.441
80.028
85.415
90.581
95.506
100.171
104.559
108.652
112.437
115.904
119.045
121.851
124.322
126.453
128.243
129.684
130.769
131.489
131.85
131.858
131.522
130.861
129.894
128.645
127.156
125.465
123.612
121.639
119.568
117.419
115.219
113
110.803
108.667
106.598
104.592
102.653
100.785
99
97.289
95.576
93.771
91.791
89.551
87.023
84.176
80.917
77.223
73.135
68.754
64.34
60.143
56.25
52.803
49.998
47.815
46.171
44.817
43.153
40.771
37.542
33.222
27.613
20.956
13.75
6.931
1.934
-0.166
1.304
7.171
18.306
35.141
57.66
85.211
115.829
147.054
177.08
203.903
226.97
247.673
265.32
277.875
281.08
267.808
234.774
182.82
115.681
40.892
-35.061
-107.049
-169.037
-216.961
-248.905
-265.662
-272.126
-273.405
-272.924
-272.078
-269.991
-266.452
-262.229
-258.343
-256.261
-256.384
-258.088
-260.692
-263.098
-264.263
-263.811
-261.654
-257.96
-253.166
-247.648
-241.71
-235.755
-230.21
-225.32
-221.197
-217.804
-214.978
-212.584
-210.519
-208.695
-207.009
-205.352
-203.609
-201.65
-199.406
-196.842
-193.933
-190.666
-187.027
-183.009
-178.636
-173.968
-169.059
-163.961
-158.715
-153.347
-147.898
-142.422
-136.977
-131.625
-126.414
-121.368
-116.509
-111.853
-107.414
-103.199
-99.198
-95.392
-91.763
-88.301
-84.995
-81.84
-78.823
-75.929
-73.141
-70.445
-67.829
-65.281
-62.791
-60.346
-57.937
-55.555
-53.195
-50.853
-48.523
-46.197
-43.868
-41.53
-39.175
-36.798
-34.393
-31.954
-29.476
-26.956
-24.391
-21.78
-19.121
-16.414
-13.656
-10.85
-7.994
-5.089
-2.135
0.867
3.916
7.01
10.15
13.333
16.56
19.829
23.14
26.491
29.881
33.31
36.777
40.282
43.823
47.399
51.009
54.653
58.329
62.037
65.773
69.536
73.325
77.137
80.97
84.821
88.687
92.565
96.451
100.34
104.229
108.111
111.981
115.832
119.658
123.45
127.201
130.902
134.545
138.121
141.62
145.033
148.351
151.565
154.664
157.639
160.483
163.184
165.737
168.133
170.364
172.425
174.309
176.013
177.531
178.863
180.004
180.956
181.717
182.29
182.677
182.883
182.911
182.77
182.465
182.005
181.402
180.664
179.803
178.833
177.765
176.614
175.393
174.118
172.802
171.461
170.11
168.763
167.435
166.141
164.895
163.709
162.596
161.57
160.639
159.815
159.106
158.521
158.066
157.746
157.567
157.53
157.638
157.891
158.287
158.825
159.499
160.305
161.237
162.286
163.445
164.703
166.051
167.478
168.972
170.52
172.111
173.731
175.366
177.003
178.629
180.228
181.788
183.296
184.738
186.102
187.376
188.549
189.61
190.55
191.358
192.025
192.544
192.907
193.107
193.14
193.001
192.686
192.195
191.525
190.677
189.651
188.448
187.068
185.514
183.787
181.891
179.827
177.6
175.215
172.675
169.988
167.159
164.195
161.1
157.881
154.543
151.093
147.535
143.872
140.11
136.254
132.311
128.287
124.191
120.03
115.812
111.546
107.242
102.908
98.553
94.182
89.802
85.424
81.056
76.709
72.393
68.118
63.895
59.734
55.652
51.655
47.749
43.935
40.212
36.579
33.044
29.61
26.283
23.077
20.012
17.12
14.439
11.995
9.808
7.891
6.249
4.892
3.835
3.081
2.647
2.551
2.813
3.467
4.534
5.99
7.783
9.826
12.005
14.244
16.461
18.538
20.449
22.23
23.983
25.93
28.24
30.958
34.179
38.037
42.456
47.23
51.989
56.116
59.208
61.146
61.706
60.67
58.223
54.862
51.53
49.623
50.229
54.091
62.155
75.374
94.225
118.686
147.948
180.522
215.053
250.162
283.927
314.092
338.389
354.821
362.054
359.119
345.682
322.512
290.902
252.912
209.276
158.938
103.026
44.334
-10.663
-52.265
-75.968
-80.57
-68.68
-47.503
-20.144
10.26
39.698
67.121
88.743
102.909
111.836
116.265
118.61
120.071
118.674
113.956
105.793
94.674
83.019
72.478
63.597
56.668
51.396
47.33
44.32
42.064
39.918
37.41
34.329
30.542
26.123
21.252
16.004
10.527
5.087
-0.171
-5.184
-9.915
-14.42
-18.752
-22.921
-26.969
-30.952
-34.897
-38.832
-42.759
-46.648
-50.484
-54.254
-57.944
-61.544
-65.039
-68.405
-71.631
-74.712
-77.642
-80.42
-83.044
-85.508
-87.811
-89.95
-91.922
-93.728
-95.368
-96.845
-98.161
-99.318
-100.324
-101.186
-101.914
-102.514
-102.994
-103.359
-103.616
-103.773
-103.838
-103.819
-103.723
-103.562
-103.344
-103.081
-102.784
-102.462
-102.125
-101.781
-101.438
-101.102
-100.779
-100.476
-100.196
-99.943
-99.722
-99.536
-99.388
-99.28
-99.214
-99.19
-99.209
-99.272
-99.377
-99.525
-99.712
-99.938
-100.201
-100.499
-100.829
-101.188
-101.573
-101.98
-102.406
-102.847
-103.299
-103.756
-104.214
-104.67
-105.119
-105.559
-105.985
-106.394
-106.786
-107.156
-107.505
-107.831
-108.133
-108.41
-108.662
-108.891
-109.095
-109.278
-109.439
-109.58
-109.705
-109.814
-109.912
-110
-110.081
-110.16
-110.24
-110.324
-110.417
-110.523
-110.646
-110.791
-110.962
-111.163
-111.399
-111.674
-111.991
-112.355
-112.769
-113.236
-113.758
-114.338
-114.979
-115.681
-116.447
-117.277
-118.172
-119.132
-120.157
-121.247
-122.399
-123.614
-124.888
-126.219
-127.604
-129.04
-130.522
-132.045
-133.605
-135.195
-136.809
-138.439
-140.079
-141.721
-143.356
-144.977
-146.574
-148.138
-149.661
-151.134
-152.546
-153.89
-155.154
-156.331
-157.41
-158.384
-159.241
-159.975
-160.576
-161.036
-161.346
-161.498
-161.485
-161.299
-160.934
-160.383
-159.641
-158.705
-157.569
-156.233
-154.694
-152.952
-151.007
-148.861
-146.516
-143.976
-141.244
-138.326
-135.227
-131.955
-128.517
-124.923
-121.18
-117.301
-113.296
-109.177
-104.956
-100.645
-96.258
-91.809
-87.313
-82.784
-78.239
-73.695
-69.17
-64.682
-60.249
-55.889
-51.62
-47.459
-43.423
-39.528
-35.79
-32.224
-28.844
-25.665
-22.7
-19.963
-17.465
-15.22
-13.236
-11.526
-10.097
-8.955
-8.104
-7.548
-7.288
-7.326
-7.661
-8.29
-9.208
-10.413
-11.896
-13.653
-15.672
-17.94
-20.443
-23.163
-26.084
-29.19
-32.466
-35.888
-39.444
-43.116
-46.892
-50.771
-54.744
-58.793
-62.901
-67.041
-71.177
-75.281
-79.317
-83.241
-87.018
-90.617
-94.008
-97.18
-100.116
-102.794
-105.184
-107.234
-108.884
-110.096
-110.844
-111.139
-111.034
-110.58
-109.85
-108.928
-107.904
-106.901
-105.959
-105.021
-103.96
-102.557
-100.648
-98.231
-95.256
-91.599
-87.369
-82.775
-78.183
-74.342
-71.754
-70.576
-71.09
-73.443
-77.292
-82.126
-86.956
-90.122
-90.354
-86.574
-77.456
-62.128
-40.338
-12.314
20.812
57.197
95.183
132.722
167.164
196.05
217.199
229.091
230.99
222.535
203.596
174.755
138.248
96.917
52.976
8.753
-34.865
-76.848
-113.024
-140.495
-156.695
-159.543
-152.216
-137.453
-117.507
-96.256
-74.518
-53.087
-33.468
-15.655
-0.388
11.321
19.223
23.524
25.092
25.268
25.208
25.474
26.265
27.852
30.631
34.726
39.972
45.864
51.697
57.117
62.081
66.557
70.485
73.853
76.673
79.108
81.484
83.981
86.634
89.444
92.359
95.344
98.409
101.519
104.586
107.552
110.363
112.979
115.389
117.563
119.469
121.086
122.393
123.381
124.053
124.415
124.476
124.251
123.747
122.973
121.937
120.65
119.124
117.373
115.412
113.257
110.925
108.435
105.804
103.049
100.184
97.22
94.169
91.04
87.843
84.592
81.299
77.975
74.632
71.281
67.933
64.597
61.28
57.99
54.73
51.504
48.315
45.166
42.059
38.995
35.975
32.999
30.067
27.178
24.33
21.521
18.75
16.011
13.302
10.618
7.957
5.314
2.686
0.068
-2.542
-5.148
-7.754
-10.361
-12.973
-15.591
-18.217
-20.853
-23.5
-26.157
-28.825
-31.502
-34.186
-36.875
-39.565
-42.255
-44.939
-47.613
-50.272
-52.913
-55.529
-58.115
-60.665
-63.174
-65.636
-68.043
-70.39
-72.67
-74.878
-77.006
-79.049
-81.001
-82.856
-84.61
-86.256
-87.791
-89.21
-90.509
-91.685
-92.734
-93.654
-94.442
-95.098
-95.621
-96.01
-96.265
-96.389
-96.382
-96.248
-95.989
-95.61
-95.114
-94.507
-93.794
-92.983
-92.079
-91.091
-90.027
-88.896
-87.707
-86.47
-85.196
-83.894
-82.576
-81.253
-79.936
-78.637
-77.369
-76.142
-74.969
-73.862
-72.832
-71.892
-71.052
-70.323
-69.715
-69.239
-68.903
-68.716
-68.684
-68.816
-69.115
-69.587
-70.235
-71.062
-72.068
-73.252
-74.615
-76.152
-77.86
-79.733
-81.765
-83.946
-86.269
-88.722
-91.293
-93.97
-96.74
-99.588
-102.498
-105.455
-108.442
-111.442
-114.438
-117.41
-120.343
-123.218
-126.017
-128.723
-131.32
-133.79
-136.12
-138.294
-140.298
-142.121
-143.75
-145.176
-146.389
-147.381
-148.146
-148.679
-148.977
-149.039
-148.864
-148.456
-147.818
-146.956
-145.876
-144.587
-143.098
-141.42
-139.563
-137.539
-135.362
-133.044
-130.6
-128.044
-125.391
-122.656
-119.854
-117
-114.108
-111.191
-108.26
-105.327
-102.401
-99.492
-96.61
-93.763
-90.957
-88.197
-85.488
-82.831
-80.224
-77.666
-75.149
-72.666
-70.205
-67.758
-65.314
-62.865
-60.399
-57.907
-55.377
-52.803
-50.178
-47.499
-44.764
-41.969
-39.112
-36.193
-33.211
-30.165
-27.049
-23.853
-20.562
-17.162
-13.637
-9.975
-6.162
-2.175
2.021
6.469
11.215
16.301
21.757
27.6
33.832
40.442
47.401
54.642
62.049
69.544
77.104
84.778
92.7
100.962
109.551
118.464
127.74
137.295
146.849
155.906
163.701
169.526
173.007
173.882
171.915
167.168
160.1
151.61
143.166
136.343
132.338
132.294
137.3
148.056
164.938
187.632
214.919
245.397
277.103
307.717
335.641
358.789
376.073
387.216
390.157
384.119
367.97
340.212
302.452
255.671
202.544
148.888
100.494
63.994
43.421
37.238
40.644
48.304
56.24
63.697
72.147
81.742
91.737
101.037
107.902
111.841
113.462
113.296
112.252
111.429
111.306
112.14
114.076
116.842
120.14
123.779
127.424
130.706
133.452
135.588
137.131
138.244
139.073
139.713
140.292
140.931
141.701
142.648
143.792
145.132
146.67
148.422
150.392
152.574
154.957
157.525
160.252
163.109
166.059
169.059
172.068
175.045
177.961
180.798
183.542
186.183
188.714
191.129
193.426
195.607
197.67
199.616
201.442
203.149
204.74
206.218
207.59
208.861
210.035
211.114
212.099
212.989
213.782
214.477
215.069
215.554
215.929
216.191
216.338
216.371
216.288
216.087
215.768
215.331
214.773
214.095
213.294
212.369
211.32
210.146
208.847
207.426
205.882
204.219
202.437
200.541
198.532
196.415
194.192
191.867
189.443
186.926
184.321
181.632
178.866
176.03
173.129
170.17
167.162
164.11
161.023
157.907
154.77
151.619
148.462
145.304
142.154
139.018
135.901
132.811
129.753
126.731
123.751
120.815
117.929
115.094
112.313
109.588
106.921
104.313
101.765
99.277
96.849
94.481
92.172
89.92
87.725
85.584
83.496
81.457
79.465
77.518
75.613
73.745
71.913
70.112
68.339
66.592
64.867
63.16
61.471
59.794
58.13
56.474
54.827
53.185
51.548
49.914
48.283
46.653
45.024
43.394
41.764
40.132
38.498
36.859
35.217
33.568
31.913
30.248
28.574
26.888
25.188
23.472
21.739
19.986
18.211
16.412
14.586
12.732
10.846
8.925
6.968
4.971
2.931
0.846
-1.286
-3.468
-5.702
-7.991
-10.336
-12.738
-15.199
-17.721
-20.302
-22.944
-25.645
-28.404
-31.217
-34.083
-36.997
-39.956
-42.952
-45.982
-49.039
-52.115
-55.205
-58.3
-61.392
-64.471
-67.529
-70.556
-73.542
-76.477
-79.35
-82.151
-84.87
-87.496
-90.021
-92.435
-94.729
-96.894
-98.922
-100.804
-102.532
-104.1
-105.5
-106.727
-107.776
-108.645
-109.331
-109.834
-110.155
-110.294
-110.255
-110.04
-109.653
-109.099
-108.384
-107.513
-106.495
-105.338
-104.052
-102.649
-101.141
-99.541
-97.864
-96.124
-94.334
-92.506
-90.653
-88.785
-86.914
-85.048
-83.197
-81.372
-79.584
-77.846
-76.169
-74.563
-73.037
-71.598
-70.251
-68.999
-67.844
-66.784
-65.815
-64.942
-64.168
-63.505
-62.967
-62.557
-62.275
-62.121
-62.088
-62.166
-62.337
-62.567
-62.819
-63.07
-63.305
-63.521
-63.722
-63.898
-64.036
-64.118
-64.117
-64.028
-63.84
-63.528
-63.077
-62.476
-61.755
-61.001
-60.31
-59.759
-59.406
-59.261
-59.354
-59.762
-60.479
-61.432
-62.485
-63.377
-63.929
-64.093
-63.755
-62.809
-61.306
-59.346
-57.318
-55.936
-55.713
-57.031
-60.231
-65.265
-71.749
-79.076
-86.027
-91.016
-92.605
-89.221
-79.469
-62.766
-39.674
-11.819
18.696
49.954
81.906
115.169
148.064
176.628
193.832
192.129
169.293
129.286
79.63
27.942
-21.62
-69.772
-116.788
-159.47
-193.659
-214.401
-220.756
-216.21
-204.266
-188.287
-168.65
-145.952
-123.427
-104.143
-92.864
-91.306
-96.103
-103.944
-110.401
-112.892
-113.14
-112.432
-111.644
-111.072
-109.315
-105.76
-100.989
-95.831
-91.057
-86.994
-83.545
-80.592
-78.238
-76.525
-75.256
-74.108
-72.821
-71.279
-69.487
-67.496
-65.276
-62.779
-60.001
-56.978
-53.756
-50.368
-46.818
-43.103
-39.237
-35.257
-31.21
-27.149
-23.11
-19.114
-15.18
-11.323
-7.555
-3.889
-0.33
3.116
6.447
9.653
12.725
15.655
18.434
21.059
23.531
25.852
28.024
30.047
31.918
33.631
35.182
36.568
37.782
38.818
39.671
40.338
40.819
41.114
41.226
41.156
40.907
40.482
39.886
39.121
38.194
37.108
35.871
34.489
32.97
31.324
29.561
27.691
25.725
23.673
21.549
19.364
17.129
14.857
12.559
10.248
7.936
5.633
3.353
1.106
-1.098
-3.25
-5.34
-7.361
-9.305
-11.169
-12.946
-14.633
-16.229
-17.73
-19.136
-20.448
-21.666
-22.795
-23.836
-24.797
-25.683
-26.502
-27.263
-27.974
-28.646
-29.289
-29.916
-30.537
-31.164
-31.811
-32.488
-33.209
-33.985
-34.827
-35.747
-36.754
-37.856
-39.061
-40.375
-41.802
-43.346
-45.007
-46.786
-48.683
-50.696
-52.821
-55.056
-57.396
-59.836
-62.37
-64.989
-67.682
-70.435
-73.23
-76.051
-78.877
-81.688
-84.463
-87.181
-89.824
-92.374
-94.815
-97.13
-99.3
-101.305
-103.121
-104.729
-106.117
-107.277
-108.207
-108.913
-109.409
-109.712
-109.841
-109.809
-109.621
-109.276
-108.759
-108.059
-107.163
-106.07
-104.798
-103.361
-101.769
-100.028
-98.137
-96.076
-93.819
-91.331
-88.573
-85.534
-82.218
-78.654
-74.905
-71.042
-67.148
-63.284
-59.474
-55.738
-52.101
-48.601
-45.287
-42.238
-39.541
-37.3
-35.641
-34.646
-34.374
-34.847
-36.029
-37.865
-40.286
-43.247
-46.743
-50.793
-55.392
-60.513
-66.115
-72.105
-78.383
-84.812
-91.205
-97.413
-103.315
-108.816
-113.882
-118.502
-122.659
-126.325
-129.432
-131.882
-133.606
-134.557
-134.702
-134.056
-132.651
-130.56
-127.918
-124.84
-121.416
-117.719
-113.779
-109.613
-105.254
-100.74
-96.123
-91.492
-86.914
-82.439
-78.124
-73.984
-70.024
-66.225
-62.52
-58.853
-55.19
-51.51
-47.816
-44.123
-40.433
-36.753
-33.09
-29.434
-25.782
-22.141
-18.507
-14.904
-11.359
-7.902
-4.581
-1.441
1.495
4.21
6.707
9.007
11.126
13.084
14.911
16.621
18.235
19.775
21.256
22.71
24.17
25.635
27.11
28.593
30.066
31.528
32.951
34.254
35.354
36.159
36.58
36.565
36.043
34.903
33.101
30.654
27.675
24.439
21.221
18.202
15.603
13.677
12.529
12.1
12.093
11.876
10.846
8.677
5.102
-0.143
-6.968
-14.791
-22.55
-28.649
-31.453
-29.762
-22.425
-8.189
13.69
43.172
79.429
120.757
165.042
210.26
253.959
293.15
324.917
346.717
356.643
353.488
337.217
308.858
270.014
223.18
169.485
108.303
41.15
-28.634
-94.032
-144.195
-172.91
-178.992
-166.336
-144.414
-119.866
-95.971
-73.981
-52.338
-31.056
-11.725
4.04
14.413
18.969
18.767
15.314
10.522
6.043
2.823
1.62
2.887
6.676
12.766
20.593
29.258
37.857
45.836
52.837
58.695
63.436
67.111
69.871
72.041
74.006
76.017
78.21
80.614
83.176
85.882
88.733
91.696
94.708
97.71
100.657
103.531
106.337
109.061
111.669
114.115
116.344
118.319
120.026
121.453
122.597
123.451
124.008
124.272
124.254
123.969
123.425
122.63
121.589
120.314
118.824
117.139
115.283
113.272
111.122
108.846
106.462
103.982
101.422
98.793
96.106
93.374
90.612
87.835
85.057
82.294
79.558
76.863
74.222
71.647
69.148
66.737
64.422
62.212
60.118
58.145
56.303
54.596
53.031
51.613
50.345
49.23
48.271
47.468
46.822
46.331
45.997
45.816
45.786
45.903
46.164
46.563
47.096
47.756
48.536
49.427
50.423
51.513
52.689
53.941
55.259
56.633
58.051
59.503
60.978
62.465
63.953
65.43
66.885
68.307
69.686
71.01
72.269
73.453
74.552
75.557
76.459
77.249
77.92
78.463
78.873
79.144
79.27
79.246
79.069
78.737
78.248
77.6
76.793
75.83
74.71
73.437
72.015
70.447
68.74
66.898
64.93
62.841
60.641
58.337
55.939
53.456
50.897
48.272
45.591
42.865
40.104
37.316
34.514
31.706
28.902
26.113
23.346
20.61
17.914
15.265
12.67
10.135
7.667
5.268
2.945
0.699
-1.467
-3.551
-5.554
-7.476
-9.318
-11.083
-12.772
-14.391
-15.942
-17.431
-18.863
-20.243
-21.579
-22.876
-24.141
-25.38
-26.602
-27.812
-29.017
-30.224
-31.439
-32.668
-33.918
-35.194
-36.501
-37.844
-39.228
-40.658
-42.136
-43.665
-45.248
-46.885
-48.577
-50.324
-52.123
-53.973
-55.871
-57.814
-59.797
-61.817
-63.869
-65.946
-68.044
-70.154
-72.271
-74.388
-76.496
-78.588
-80.658
-82.7
-84.707
-86.675
-88.598
-90.472
-92.293
-94.057
-95.759
-97.398
-98.968
-100.468
-101.895
-103.25
-104.532
-105.743
-106.886
-107.963
-108.982
-109.946
-110.863
-111.737
-112.574
-113.378
-114.156
-114.913
-115.654
-116.385
-117.112
-117.841
-118.581
-119.339
-120.122
-120.932
-121.774
-122.648
-123.556
-124.498
-125.474
-126.481
-127.522
-128.602
-129.728
-130.912
-132.163
-133.482
-134.869
-136.319
-137.816
-139.339
-140.863
-142.356
-143.794
-145.159
-146.439
-147.627
-148.715
-149.689
-150.528
-151.201
-151.671
-151.902
-151.86
-151.52
-150.899
-150.047
-149.024
-147.923
-146.805
-145.728
-144.779
-143.968
-143.236
-142.471
-141.468
-140.048
-138.156
-135.694
-132.503
-128.651
-124.289
-119.715
-115.587
-112.401
-110.383
-109.887
-111.172
-114.036
-118.093
-122.49
-125.621
-126.07
-122.689
-114.216
-99.583
-78.188
-49.939
-15.483
22.994
62.511
101.069
136.885
168.867
197.428
220.048
232.715
232.849
216.876
186.111
145.151
96.14
43.954
-7.834
-55.807
-91.541
-110.442
-111.472
-96.559
-73.751
-48.966
-24.696
-2.198
19.991
42.27
63.562
82.898
98.927
111.084
119.595
125.209
129.33
133.131
137.162
141.651
146.582
152.003
158.175
165.037
172.068
178.644
184.353
189.059
192.827
195.714
197.606
198.468
198.473
197.896
196.982
195.849
194.486
192.85
190.961
188.855
186.535
183.969
181.101
177.893
174.345
170.469
166.274
161.753
156.886
151.66
146.081
140.167
133.942
127.436
120.677
113.695
106.529
99.214
91.789
84.292
76.755
69.212
61.696
54.247
46.902
39.703
32.681
25.867
19.291
12.977
6.95
1.229
-4.166
-9.221
-13.919
-18.245
-22.187
-25.732
-28.874
-31.606
-33.925
-35.831
-37.327
-38.418
-39.112
-39.417
-39.346
-38.912
-38.129
-37.015
-35.588
-33.869
-31.877
-29.637
-27.171
-24.505
-21.665
-18.676
-15.565
-12.359
-9.084
-5.767
-2.434
0.889
4.175
7.402
10.545
13.58
16.487
19.244
21.832
24.234
26.433
28.414
30.166
31.677
32.938
33.942
34.683
35.158
35.365
35.305
34.98
34.392
33.548
32.453
31.117
29.55
27.762
25.766
23.574
21.203
18.667
15.981
13.163
10.229
7.197
4.084
0.907
-2.316
-5.568
-8.832
-12.093
-15.335
-18.542
-21.7
-24.797
-27.818
-30.754
-33.594
-36.33
-38.953
-41.456
-43.837
-46.089
-48.212
-50.204
-52.065
-53.796
-55.401
-56.882
-58.245
-59.495
-60.639
-61.684
-62.638
-63.509
-64.306
-65.037
-65.711
-66.338
-66.924
-67.48
-68.011
-68.526
-69.032
-69.535
-70.039
-70.55
-71.072
-71.605
-72.153
-72.713
-73.287
-73.87
-74.459
-75.05
-75.637
-76.212
-76.767
-77.292
-77.778
-78.212
-78.583
-78.876
-79.079
-79.177
-79.157
-79.004
-78.704
-78.244
-77.612
-76.795
-75.782
-74.562
-73.125
-71.461
-69.564
-67.427
-65.044
-62.412
-59.529
-56.395
-53.013
-49.384
-45.516
-41.413
-37.087
-32.545
-27.802
-22.87
-17.764
-12.502
-7.102
-1.585
4.026
9.709
15.439
21.193
26.947
32.674
38.352
43.956
49.462
54.848
60.089
65.163
70.048
74.721
79.161
83.35
87.268
90.899
94.228
97.242
99.929
102.282
104.293
105.96
107.283
108.264
108.905
109.211
109.186
108.838
108.175
107.204
105.932
104.371
102.528
100.417
98.059
95.466
92.648
89.606
86.335
82.833
79.107
75.161
71.003
66.65
62.128
57.479
52.769
48.048
43.357
38.721
34.139
29.624
25.198
20.893
16.762
12.847
9.164
5.735
2.575
-0.33
-3.015
-5.597
-8.29
-11.235
-14.473
-17.95
-21.48
-24.911
-28.202
-31.279
-34.008
-36.402
-38.673
-41.278
-44.978
-50.415
-57.859
-67.426
-79.165
-92.869
-108.007
-123.639
-138.301
-150.525
-159.286
-163.632
-162.548
-155.343
-141.738
-122.051
-97.412
-69.218
-38.782
-7.923
21.004
45.698
64.103
74.82
77.137
70.562
54.961
31.098
1.184
-32.133
-66.932
-101.211
-134.2
-164.946
-189.794
-206.648
-213.581
-208.782
-195.119
-175.126
-151.219
-127.416
-104.726
-83.584
-65.138
-49.563
-37.781
-30.826
-28.536
-30.114
-34.38
-40.216
-46.704
-53.01
-58.46
-62.359
-64.282
-64.269
-62.544
-59.36
-55.089
-50.174
-44.963
-39.822
-35.015
-30.601
-26.584
-22.933
-19.529
-16.205
-12.861
-9.423
-5.868
-2.247
1.389
4.988
8.482
11.809
14.936
17.851
20.563
23.1
25.485
27.733
29.855
31.85
33.717
35.452
37.053
38.516
39.841
41.031
42.09
43.023
43.838
44.538
45.13
45.619
46.012
46.318
46.549
46.717
46.837
46.925
46.995
47.064
47.148
47.264
47.427
47.652
47.955
48.349
48.847
49.464
50.21
51.095
52.129
53.321
54.676
56.201
57.902
59.781
61.842
64.085
66.509
69.113
71.892
74.84
77.949
81.209
84.611
88.141
91.785
95.53
99.358
103.253
107.197
111.172
115.158
119.135
123.084
126.986
130.819
134.565
138.205
141.721
145.094
148.309
151.349
154.2
156.846
159.277
161.479
163.442
165.159
166.622
167.825
168.764
169.437
169.843
169.984
169.861
169.48
168.847
167.967
166.852
165.51
163.953
162.193
160.244
158.121
155.839
153.413
150.86
148.196
145.44
142.607
139.716
136.783
133.825
130.858
127.899
124.964
122.066
119.22
116.439
113.737
111.123
108.61
106.205
103.918
101.755
99.723
97.826
96.068
94.451
92.977
91.646
90.456
89.407
88.496
87.718
87.07
86.546
86.139
85.844
85.654
85.561
85.556
85.633
85.783
85.998
86.269
86.588
86.947
87.339
87.755
88.189
88.634
89.083
89.531
89.971
90.4
90.813
91.207
91.578
91.924
92.243
92.534
92.796
93.028
93.232
93.408
93.558
93.685
93.791
93.879
93.952
94.012
94.064
94.11
94.152
94.195
94.239
94.289
94.346
94.412
94.489
94.579
94.681
94.796
94.923
95.062
95.211
95.366
95.525
95.683
95.837
95.982
96.112
96.22
96.298
96.34
96.334
96.271
96.138
95.923
95.612
95.193
94.654
93.983
93.167
92.195
91.059
89.75
88.258
86.573
84.684
82.582
80.257
77.701
74.904
71.858
68.556
64.993
61.171
57.088
52.743
48.134
43.254
38.103
32.692
27.031
21.136
15.026
8.726
2.274
-4.282
-10.9
-17.537
-24.159
-30.741
-37.245
-43.634
-49.877
-55.944
-61.816
-67.494
-72.974
-78.255
-83.361
-88.324
-93.193
-98.042
-102.922
-107.874
-112.945
-118.174
-123.608
-129.285
-135.207
-141.357
-147.714
-154.22
-160.814
-167.429
-173.93
-180.178
-186.042
-191.361
-195.992
-199.793
-202.573
-204.131
-204.299
-202.913
-199.828
-194.97
-188.318
-179.984
-170.215
-159.303
-147.554
-135.29
-122.875
-110.579
-98.421
-86.154
-73.269
-59.25
-43.807
-26.763
-7.878
12.807
34.596
56.154
75.524
90.633
99.848
101.714
94.684
77.586
50.775
16.239
-23.448
-65.887
-110.67
-158.563
-207.969
-254.578
-291.759
-313.098
-316.741
-305.848
-287.145
-267.259
-249.834
-235.651
-223.043
-210.595
-198.448
-187.343
-178.362
-172.163
-168.621
-167.072
-166.876
-167.505
-168.317
-168.97
-169.342
-169.143
-168.103
-166.249
-163.607
-160.369
-157.033
-153.827
-150.802
-148.097
-145.775
-143.809
-142.195
-140.803
-139.362
-137.755
-135.95
-133.913
-131.687
-129.305
-126.781
-124.177
-121.582
-119.049
-116.625
-114.341
-112.208
-110.26
-108.528
-107.032
-105.791
-104.812
-104.097
-103.647
-103.456
-103.513
-103.804
-104.318
-105.044
-105.974
-107.095
-108.393
-109.854
-111.459
-113.194
-115.04
-116.977
-118.988
-121.054
-123.159
-125.289
-127.431
-129.568
-131.684
-133.763
-135.789
-137.748
-139.625
-141.406
-143.076
-144.626
-146.045
-147.326
-148.462
-149.446
-150.275
-150.944
-151.452
-151.796
-151.979
-152
-151.861
-151.568
-151.125
-150.54
-149.819
-148.971
-148.006
-146.934
-145.766
-144.516
-143.194
-141.814
-140.389
-138.932
-137.457
-135.979
-134.509
-133.06
-131.647
-130.279
-128.97
-127.728
-126.565
-125.487
-124.504
-123.62
-122.841
-122.172
-121.615
-121.172
-120.842
-120.626
-120.522
-120.525
-120.632
-120.837
-121.132
-121.51
-121.961
-122.475
-123.042
-123.649
-124.283
-124.933
-125.584
-126.224
-126.838
-127.412
-127.933
-128.388
-128.763
-129.045
-129.224
-129.288
-129.226
-129.03
-128.691
-128.203
-127.56
-126.759
-125.795
-124.668
-123.377
-121.924
-120.313
-118.546
-116.631
-114.574
-112.384
-110.072
-107.649
-105.127
-102.52
-99.843
-97.112
-94.341
-91.549
-88.751
-85.964
-83.207
-80.496
-77.848
-75.279
-72.807
-70.446
-68.211
-66.115
-64.17
-62.388
-60.778
-59.347
-58.104
-57.052
-56.194
-55.534
-55.071
-54.803
-54.727
-54.839
-55.13
-55.593
-56.217
-56.99
-57.899
-58.93
-60.068
-61.295
-62.595
-63.95
-65.342
-66.751
-68.16
-69.547
-70.894
-72.181
-73.389
-74.499
-75.493
-76.355
-77.07
-77.623
-78.001
-78.194
-78.191
-77.983
-77.563
-76.927
-76.069
-74.988
-73.683
-72.155
-70.41
-68.454
-66.293
-63.938
-61.399
-58.688
-55.819
-52.806
-49.664
-46.41
-43.058
-39.629
-36.141
-32.613
-29.066
-25.522
-22
-18.525
-15.117
-11.797
-8.583
-5.493
-2.542
0.254
2.883
5.335
7.601
9.671
11.534
13.181
14.603
15.799
16.767
17.505
18.013
18.296
18.358
18.216
17.881
17.359
16.654
15.759
14.679
13.433
12.038
10.513
8.883
7.175
5.433
3.723
2.097
0.593
-0.77
-1.988
-3.051
-3.933
-4.609
-5.054
-5.256
-5.22
-4.942
-4.421
-3.673
-2.735
-1.699
-0.69
0.183
0.835
1.215
1.309
1.115
0.641
-0.106
-1.144
-2.417
-3.784
-5.124
-6.278
-7.141
-7.736
-7.904
-7.271
-5.636
-2.991
0.535
4.537
8.814
13.618
19.023
24.826
30.916
37.378
44.71
53.984
66.057
81.091
99.028
119.804
143.378
169.419
196.698
223.075
246.166
263.879
274.607
276.905
268.984
250.035
221.061
183.865
141.048
93.715
40.887
-16.139
-73.957
-125.937
-163.14
-181.858
-181.732
-165.941
-141.587
-111.894
-80.392
-51.365
-25.958
-7.593
2.695
7.839
9.461
10.76
13.661
16.829
19.977
22.707
24.987
28.473
33.959
41.295
50.133
59.516
68.599
77.179
85.132
92.257
98.529
103.973
108.685
113.004
117.288
121.693
126.289
131.096
136.067
141.2
146.499
151.896
157.305
162.66
167.915
173.053
178.069
182.931
187.59
191.985
196.07
199.822
203.229
206.287
208.99
211.335
213.323
214.971
216.294
217.304
218.012
218.422
218.548
218.407
218.024
217.422
216.625
215.654
214.526
213.264
211.885
210.408
208.849
207.224
205.55
203.846
202.13
200.424
198.745
197.111
195.538
194.042
192.638
191.337
190.152
189.092
188.166
187.383
186.748
186.267
185.945
185.782
185.78
185.939
186.257
186.73
187.352
188.117
189.017
190.045
191.188
192.438
193.779
195.201
196.688
198.225
199.798
201.389
202.982
204.56
206.105
207.6
209.029
210.372
211.614
212.739
213.729
214.571
215.249
215.75
216.06
216.168
216.061
215.732
215.169
214.365
213.313
212.007
210.443
208.618
206.529
204.175
201.557
198.675
195.534
192.135
188.484
184.586
180.449
176.079
171.486
166.678
161.666
156.46
151.072
145.513
139.796
133.935
127.941
121.829
115.612
109.304
102.918
96.469
89.968
83.431
76.87
70.298
63.728
57.174
50.647
44.159
37.722
31.348
25.047
18.831
12.709
6.692
0.789
-4.99
-10.636
-16.141
-21.494
-26.689
-31.718
-36.572
-41.247
-45.734
-50.028
-54.124
-58.016
-61.699
-65.168
-68.419
-71.448
-74.251
-76.824
-79.166
-81.272
-83.141
-84.77
-86.16
-87.309
-88.215
-88.88
-89.303
-89.485
-89.427
-89.131
-88.6
-87.838
-86.849
-85.638
-84.211
-82.574
-80.735
-78.699
-76.476
-74.072
-71.495
-68.753
-65.854
-62.807
-59.622
-56.307
-52.874
-49.332
-45.691
-41.96
-38.151
-34.271
-30.331
-26.339
-22.305
-18.235
-14.141
-10.029
-5.91
-1.792
2.319
6.414
10.488
14.536
18.554
22.541
26.493
30.41
34.29
38.132
41.933
45.692
49.405
53.069
56.684
60.248
63.762
67.227
70.647
74.025
77.365
80.672
83.946
87.192
90.411
93.601
96.765
99.901
103.013
106.101
109.166
112.21
115.237
118.245
121.23
124.185
127.094
129.944
132.73
135.441
138.074
140.627
143.102
145.508
147.871
150.215
152.567
154.949
157.365
159.821
162.322
164.878
167.5
170.184
172.913
175.668
178.44
181.233
184.037
186.803
189.44
191.831
193.855
195.425
196.453
196.833
196.533
195.573
194.083
192.341
190.592
189.015
187.802
187.051
186.686
186.541
186.2
185.02
182.553
178.465
172.511
164.858
156.033
146.87
138.747
133.274
131.896
136.012
146.739
164.531
189.218
219.945
255.082
292.629
330.26
365.276
395.115
417.605
431.194
435.1
429.089
413.437
389.299
358.658
323.861
287.5
251.922
219.137
191.229
169.937
156.059
149.558
149.759
155.448
165.364
178.168
192.029
205.15
216.367
225.033
231.019
234.599
236.047
235.734
234.426
232.948
231.809
231.264
231.261
231.534
231.885
232.131
231.999
231.225
229.664
227.277
224.155
220.477
216.406
212.083
207.61
203.051
198.45
193.827
189.198
184.58
179.981
175.41
170.886
166.43
162.063
157.806
153.656
149.59
145.585
141.611
137.659
133.736
129.851
126.017
122.249
118.559
114.971
111.51
108.19
105.022
102.012
99.164
96.488
93.999
91.706
89.622
87.754
86.106
84.681
83.479
82.498
81.729
81.163
80.787
80.587
80.551
80.665
80.915
81.283
81.753
82.307
82.927
83.593
84.284
84.978
85.653
86.285
86.852
87.333
87.705
87.948
88.042
87.969
87.71
87.249
86.571
85.661
84.507
83.097
81.421
79.471
77.238
74.719
71.91
68.809
65.417
61.735
57.768
53.52
48.998
44.21
39.166
33.876
28.352
22.607
16.657
10.516
4.201
-2.27
-8.88
-15.611
-22.445
-29.364
-36.35
-43.386
-50.454
-57.539
-64.623
-71.692
-78.731
-85.727
-92.666
-99.537
-106.329
-113.031
-119.636
-126.134
-132.52
-138.788
-144.933
-150.951
-156.84
-162.599
-168.227
-173.724
-179.092
-184.332
-189.449
-194.446
-199.328
-204.1
-208.768
-213.339
-217.819
-222.214
-226.533
-230.782
-234.968
-239.099
-243.18
-247.22
-251.224
-255.199
-259.152
-263.087
-267.01
-270.927
-274.842
-278.76
-282.685
-286.621
-290.57
-294.536
-298.522
-302.529
-306.56
-310.614
-314.695
-318.8
-322.931
-327.087
-331.265
-335.464
-339.682
-343.914
-348.158
-352.409
-356.664
-360.915
-365.16
-369.39
-373.601
-377.786
-381.937
-386.046
-390.105
-394.105
-398.038
-401.894
-405.663
-409.335
-412.901
-416.349
-419.671
-422.854
-425.888
-428.763
-431.467
-433.989
-436.318
-438.445
-440.358
-442.049
-443.507
-444.725
-445.696
-446.414
-446.873
-447.069
-446.997
-446.656
-446.043
-445.158
-444.003
-442.58
-440.893
-438.949
-436.755
-434.323
-431.664
-428.79
-425.717
-422.459
-419.034
-415.46
-411.756
-407.944
-404.044
-400.082
-396.081
-392.069
-388.072
-384.119
-380.238
-376.458
-372.808
-369.316
-366.007
-362.906
-360.038
-357.426
-355.095
-353.065
-351.357
-349.989
-348.981
-348.351
-348.113
-348.279
-348.852
-349.837
-351.235
-353.046
-355.269
-357.895
-360.92
-364.338
-368.146
-372.346
-376.936
-381.901
-387.22
-392.87
-398.812
-405.01
-411.428
-418.011
-424.713
-431.497
-438.329
-445.192
-452.064
-458.91
-465.678
-472.306
-478.728
-484.892
-490.744
-496.245
-501.397
-506.212
-510.736
-515.052
-519.21
-523.258
-527.248
-531.139
-534.83
-538.197
-541.044
-543.239
-544.73
-545.406
-545.207
-544.259
-542.777
-541.155
-539.947
-539.482
-539.981
-541.748
-544.8
-548.766
-553.024
-556.509
-557.906
-556.127
-550.061
-538.491
-520.782
-496.984
-467.741
-434.321
-398.203
-360.974
-324.753
-292.043
-264.92
-244.85
-232.651
-228.694
-233.472
-246.462
-265.561
-288.27
-312.584
-338.368
-366.957
-397.968
-427.688
-449.752
-458.102
-450.446
-429.57
-402.264
-374.964
-351.506
-332.894
-317.015
-301.94
-287.122
-272.545
-258.973
-246.638
-234.758
-222.419
-209.037
-194.457
-178.917
-162.831
-146.523
-130.312
-114.591
-99.714
-85.887
-73.177
-61.547
-50.899
-41.193
-32.412
-24.538
-17.554
-11.413
-6.076
-1.492
2.405
5.699
8.52
10.983
13.165
15.123
16.886
18.472
19.903
21.217
22.445
23.637
24.859
26.153
27.56
29.101
30.772
32.549
34.385
36.241
38.092
39.937
41.786
43.655
45.566
47.535
49.588
51.739
53.99
56.342
58.799
61.371
64.081
66.964
70.063
73.416
77.055
81.004
85.278
89.885
94.829
100.107
105.709
111.626
117.854
124.39
131.228
138.359
145.77
153.442
161.353
169.482
177.804
186.294
194.928
203.682
212.535
221.464
230.451
239.473
248.51
257.537
266.531
275.467
284.322
293.071
301.69
310.154
318.442
326.532
334.403
342.035
349.407
356.503
363.303
369.791
375.951
381.768
387.228
392.318
397.027
401.345
405.263
408.775
411.873
414.555
416.815
418.652
420.065
421.055
421.624
421.773
421.508
420.833
419.757
418.287
416.433
414.205
411.617
408.681
405.411
401.825
397.937
393.766
389.33
384.649
379.743
374.633
369.341
363.89
358.302
352.601
346.81
340.954
335.056
329.139
323.228
317.346
311.515
305.758
300.096
294.551
289.142
283.888
278.808
273.918
269.233
264.769
260.538
256.551
252.819
249.351
246.153
243.231
240.588
238.227
236.147
234.348
232.826
231.575
230.591
229.865
229.388
229.149
229.137
229.339
229.74
230.325
231.079
231.985
233.024
234.18
235.433
236.766
238.16
239.597
241.058
242.526
243.981
245.408
246.789
248.107
249.346
250.492
251.529
252.444
253.226
253.864
254.346
254.666
254.816
254.79
254.582
254.189
253.608
252.837
251.875
250.722
249.38
247.851
246.138
244.247
242.182
239.95
237.559
235.014
232.323
229.493
226.532
223.448
220.251
216.95
213.553
210.07
206.512
202.89
199.213
195.49
191.729
187.939
184.127
180.3
176.462
172.618
168.774
164.936
161.109
157.302
153.519
149.768
146.057
142.394
138.785
135.234
131.746
128.324
124.973
121.7
118.509
115.402
112.382
109.455
106.627
103.904
101.286
98.768
96.339
93.994
91.734
89.562
87.479
85.489
83.599
81.834
80.232
78.839
77.681
76.769
76.105
75.695
75.552
75.696
76.135
76.854
77.839
79.087
80.617
82.432
84.489
86.698
88.913
90.991
92.845
94.398
95.559
96.296
96.623
96.614
96.491
96.463
96.647
97.198
98.196
99.522
101.018
102.398
103.211
103.225
102.273
100.042
96.535
92.152
87.566
83.933
82.52
84.156
89.765
100.485
117.005
139.56
167.662
199.841
234.495
270.198
305.022
336.629
362.746
381.184
390.561
390.455
380.547
360.827
332.214
296.34
255.391
212.027
168.591
127.1
89.809
58.661
34.675
18.129
8.617
5.117
6.57
11.816
19.161
26.944
34.143
40.249
45.244
49.501
53.338
57.098
61.515
67.361
75.046
84.675
95.978
108.456
121.732
135.497
149.354
162.89
175.76
187.702
198.636
208.575
217.521
225.45
232.276
237.931
242.41
245.742
248.021
249.364
249.848
249.539
248.542
246.967
244.959
242.674
240.189
237.558
234.841
232.102
229.455
227
224.78
222.806
221.061
219.51
218.138
216.932
215.837
214.789
213.71
212.506
211.136
209.578
207.802
205.78
203.473
200.846
197.894
194.633
191.074
187.236
183.13
178.769
174.189
169.435
164.552
159.592
154.59
149.57
144.558
139.576
134.645
129.782
124.997
120.289
115.663
111.126
106.686
102.352
98.123
93.998
89.976
86.053
82.228
78.5
74.868
71.33
67.888
64.541
61.29
58.138
55.084
52.127
49.264
46.491
43.803
41.196
38.667
36.208
33.815
31.483
29.209
26.988
24.816
22.69
20.606
18.559
16.546
14.563
12.605
10.67
8.755
6.856
4.97
3.095
1.229
-0.631
-2.486
-4.338
-6.189
-8.042
-9.897
-11.756
-13.619
-15.488
-17.362
-19.242
-21.127
-23.019
-24.915
-26.815
-28.719
-30.626
-32.535
-34.447
-36.358
-38.27
-40.18
-42.087
-43.99
-45.887
-47.777
-49.656
-51.523
-53.375
-55.21
-57.025
-58.818
-60.587
-62.328
-64.039
-65.717
-67.36
-68.966
-70.531
-72.054
-73.533
-74.965
-76.349
-77.683
-78.967
-80.2
-81.381
-82.51
-83.588
-84.615
-85.593
-86.522
-87.404
-88.241
-89.037
-89.793
-90.514
-91.203
-91.864
-92.503
-93.123
-93.73
-94.329
-94.926
-95.524
-96.13
-96.748
-97.384
-98.04
-98.723
-99.436
-100.183
-100.968
-101.793
-102.661
-103.574
-104.532
-105.535
-106.583
-107.674
-108.805
-109.973
-111.175
-112.406
-113.66
-114.933
-116.217
-117.507
-118.793
-120.068
-121.322
-122.547
-123.731
-124.865
-125.939
-126.942
-127.865
-128.698
-129.432
-130.059
-130.571
-130.961
-131.22
-131.343
-131.323
-131.158
-130.843
-130.376
-129.757
-128.987
-128.069
-127.011
-125.818
-124.499
-123.062
-121.517
-119.875
-118.146
-116.341
-114.47
-112.546
-110.581
-108.593
-106.599
-104.617
-102.668
-100.772
-98.947
-97.215
-95.595
-94.106
-92.762
-91.581
-90.58
-89.778
-89.201
-88.87
-88.8
-89.003
-89.483
-90.236
-91.255
-92.528
-94.035
-95.751
-97.65
-99.706
-101.901
-104.225
-106.673
-109.232
-111.882
-114.607
-117.406
-120.292
-123.297
-126.457
-129.803
-133.374
-137.221
-141.4
-145.987
-151.064
-156.7
-162.931
-169.76
-177.165
-185.14
-193.69
-202.749
-212.152
-221.631
-230.9
-239.789
-248.242
-256.196
-263.463
-269.863
-275.309
-279.889
-283.841
-287.247
-289.915
-291.553
-292.026
-291.255
-289.191
-285.726
-280.439
-272.913
-262.973
-250.579
-235.77
-218.653
-199.242
-177.637
-154.402
-130.985
-109.569
-91.675
-78.357
-69.759
-64.97
-65.475
-73.736
-91.542
-121.439
-163.096
-214.144
-272.198
-332.011
-387.017
-430.228
-455.601
-460.884
-447.554
-420.756
-386.013
-348.516
-313.475
-283.64
-261.281
-246.626
-236.961
-230.418
-224.901
-219.575
-215.829
-213.766
-213.041
-212.97
-211.734
-208.433
-203.001
-195.561
-186.777
-177.422
-168.077
-159.187
-151.065
-143.815
-137.389
-131.695
-126.595
-121.861
-117.237
-112.566
-107.767
-102.833
-97.829
-92.802
-87.773
-82.788
-77.904
-73.163
-68.603
-64.251
-60.12
-56.241
-52.641
-49.338
-46.346
-43.669
-41.3
-39.23
-37.447
-35.932
-34.673
-33.66
-32.879
-32.319
-31.966
-31.801
-31.803
-31.948
-32.211
-32.567
-32.992
-33.463
-33.96
-34.463
-34.954
-35.417
-35.835
-36.189
-36.46
-36.628
-36.676
-36.586
-36.343
-35.932
-35.341
-34.558
-33.575
-32.387
-30.986
-29.37
-27.535
-25.48
-23.205
-20.711
-18.003
-15.085
-11.963
-8.645
-5.141
-1.461
2.383
6.377
10.508
14.762
19.123
23.576
28.104
32.691
37.321
41.977
46.643
51.302
55.938
60.536
65.079
69.553
73.945
78.242
82.431
86.503
90.448
94.256
97.92
101.434
104.793
107.992
111.029
113.9
116.606
119.145
121.519
123.73
125.78
127.673
129.412
131.001
132.446
133.751
134.921
135.961
136.877
137.673
138.353
138.923
139.386
139.746
140.006
140.169
140.237
140.211
140.092
139.88
139.575
139.174
138.676
138.078
137.375
136.565
135.643
134.602
133.438
132.144
130.714
129.141
127.418
125.54
123.499
121.289
118.903
116.337
113.585
110.642
107.505
104.171
100.637
96.903
92.97
88.837
84.508
79.986
75.275
70.381
65.31
60.071
54.673
49.127
43.443
37.634
31.715
25.701
19.605
13.446
7.239
1.003
-5.246
-11.49
-17.71
-23.888
-30.006
-36.046
-41.989
-47.816
-53.512
-59.059
-64.44
-69.64
-74.646
-79.445
-84.024
-88.374
-92.484
-96.347
-99.956
-103.305
-106.389
-109.205
-111.752
-114.029
-116.037
-117.782
-119.267
-120.499
-121.485
-122.233
-122.753
-123.056
-123.151
-123.05
-122.764
-122.308
-121.693
-120.937
-120.055
-119.064
-117.981
-116.825
-115.613
-114.362
-113.087
-111.803
-110.523
-109.258
-108.018
-106.816
-105.661
-104.563
-103.53
-102.574
-101.7
-100.916
-100.225
-99.628
-99.127
-98.723
-98.413
-98.196
-98.07
-98.037
-98.108
-98.286
-98.571
-98.96
-99.446
-100.016
-100.658
-101.356
-102.073
-102.777
-103.429
-103.992
-104.451
-104.794
-105.004
-105.056
-104.921
-104.576
-104.027
-103.284
-102.343
-101.192
-99.829
-98.289
-96.663
-95.066
-93.606
-92.371
-91.435
-90.895
-90.79
-91.094
-91.701
-92.388
-92.926
-93.185
-93.019
-92.252
-90.938
-89.284
-87.636
-86.605
-86.619
-87.798
-90.354
-94.485
-99.901
-105.941
-111.483
-114.93
-115.079
-111.144
-102.175
-87.302
-66.073
-38.534
-5.727
30.698
68.797
106.036
140.487
170.48
195.112
215.054
228.583
232.099
222.08
194.937
152.714
101.771
47.443
-6.227
-59.368
-113.374
-165.819
-211.193
-242.208
-254.071
-247.488
-227.172
-200.894
-175.88
-155.988
-143.482
-136.987
-132.586
-128.29
-122.23
-114.481
-108.008
-104.14
-103.176
-104.966
-107.893
-110.721
-113.182
-114.982
-115.797
-115.55
-114.225
-111.819
-108.664
-105.248
-101.731
-98.242
-95.009
-92.029
-89.283
-86.777
-84.294
-81.583
-78.552
-75.137
-71.31
-67.137
-62.639
-57.829
-52.79
-47.597
-42.312
-36.998
-31.686
-26.398
-21.168
-16.021
-10.987
-6.092
-1.351
3.225
7.629
11.859
15.907
19.765
23.43
26.894
30.155
33.213
36.066
38.714
41.159
43.404
45.452
47.307
48.973
50.452
51.746
52.858
53.79
54.55
55.146
55.586
55.881
56.041
56.075
55.995
55.812
55.536
55.177
54.743
54.244
53.69
53.09
52.455
51.795
51.118
50.433
49.75
49.076
48.42
47.788
47.186
46.622
46.099
45.625
45.204
44.841
44.539
44.301
44.13
44.028
43.997
44.036
44.146
44.327
44.576
44.894
45.277
45.725
46.234
46.803
47.428
48.107
48.837
49.614
50.435
51.296
52.195
53.127
54.09
55.078
56.089
57.118
58.164
59.22
60.285
61.354
62.424
63.491
64.552
65.605
66.646
67.672
68.682
69.674
70.647
71.598
72.528
73.435
74.319
75.18
76.019
76.836
77.632
78.408
79.165
79.905
80.628
81.337
82.033
82.718
83.394
84.062
84.724
85.382
86.039
86.696
87.356
88.02
88.691
89.371
90.062
90.766
91.484
92.218
92.97
93.739
94.528
95.337
96.166
97.015
97.883
98.77
99.675
100.596
101.533
102.482
103.443
104.414
105.392
106.377
107.366
108.356
109.348
110.337
111.324
112.304
113.277
114.239
115.19
116.125
117.044
117.944
118.822
119.675
120.503
121.301
122.067
122.8
123.496
124.153
124.769
125.342
125.872
126.356
126.794
127.185
127.527
127.82
128.063
128.254
128.389
128.468
128.486
128.441
128.33
128.15
127.898
127.569
127.162
126.673
126.1
125.437
124.683
123.833
122.885
121.836
120.682
119.424
118.057
116.584
115.004
113.317
111.524
109.625
107.619
105.507
103.29
100.969
98.55
96.036
93.435
90.757
88.015
85.223
82.393
79.537
76.666
73.789
70.917
68.06
65.224
62.42
59.654
56.935
54.268
51.659
49.112
46.633
44.225
41.897
39.662
37.532
35.525
33.669
31.99
30.524
29.307
28.373
27.761
27.518
27.701
28.357
29.515
31.18
33.334
35.944
38.986
42.403
46.079
49.952
54.017
58.326
63.046
68.312
74.129
80.545
87.641
95.244
103.051
110.547
116.855
121.297
123.518
123.098
119.8
113.965
106.209
97.678
90.27
85.571
84.896
89.769
101.313
119.931
145.574
177.323
213.213
251.276
289.306
324.546
354.34
376.316
388.45
389.305
378.895
358.397
329.333
293.998
253.17
205.688
152.68
97.23
45.874
8.731
-8.765
-6.17
12.232
37.15
62.176
84.217
102.26
118.287
132.981
145.551
154.99
159.536
158.813
153.969
146.533
138.38
130.697
123.812
118.104
114.028
111.702
110.999
111.4
112
112.287
112.17
111.575
110.489
108.943
106.923
104.597
102.313
100.266
98.533
97.142
96.029
95.163
94.564
94.206
94.033
94.002
94.055
94.15
94.272
94.383
94.454
94.465
94.39
94.211
93.919
93.507
92.974
92.322
91.539
90.612
89.526
88.267
86.83
85.211
83.406
81.411
79.227
76.853
74.294
71.554
68.632
65.528
62.243
58.778
55.139
51.334
47.374
43.269
39.034
34.684
30.234
25.704
21.109
16.468
11.797
7.114
2.439
-2.209
-6.81
-11.343
-15.788
-20.123
-24.328
-28.381
-32.263
-35.955
-39.438
-42.696
-45.711
-48.469
-50.956
-53.16
-55.071
-56.677
-57.973
-58.95
-59.607
-59.939
-59.948
-59.634
-59.001
-58.055
-56.802
-55.252
-53.415
-51.303
-48.929
-46.307
-43.455
-40.388
-37.126
-33.687
-30.092
-26.363
-22.521
-18.588
-14.587
-10.54
-6.472
-2.403
1.642
5.642
9.575
13.42
17.157
20.765
24.227
27.524
30.64
33.56
36.271
38.759
41.014
43.026
44.787
46.29
47.53
48.504
49.208
49.641
49.805
49.699
49.328
48.694
47.803
46.66
45.272
43.648
41.794
39.719
37.434
34.947
32.269
29.411
26.382
23.194
19.857
16.381
12.778
9.056
5.227
1.299
-2.719
-6.818
-10.991
-15.229
-19.527
-23.879
-28.277
-32.719
-37.197
-41.71
-46.252
-50.82
-55.411
-60.023
-64.652
-69.296
-73.952
-78.619
-83.292
-87.97
-92.65
-97.328
-102
-106.664
-111.314
-115.946
-120.556
-125.139
-129.688
-134.199
-138.665
-143.079
-147.434
-151.722
-155.935
-160.063
-164.097
-168.029
-171.847
-175.541
-179.103
-182.522
-185.788
-188.892
-191.825
-194.578
-197.142
-199.51
-201.675
-203.63
-205.371
-206.892
-208.19
-209.266
-210.118
-210.748
-211.157
-211.35
-211.329
-211.102
-210.675
-210.054
-209.249
-208.27
-207.128
-205.837
-204.412
-202.87
-201.229
-199.507
-197.724
-195.899
-194.053
-192.202
-190.365
-188.561
-186.803
-185.112
-183.502
-181.989
-180.592
-179.325
-178.202
-177.236
-176.437
-175.814
-175.373
-175.121
-175.061
-175.196
-175.529
-176.065
-176.818
-177.793
-178.991
-180.407
-182.035
-183.861
-185.87
-188.042
-190.339
-192.722
-195.153
-197.589
-200.009
-202.397
-204.727
-206.968
-209.083
-211.04
-212.835
-214.47
-215.933
-217.208
-218.287
-219.195
-220.018
-220.86
-221.822
-222.982
-224.404
-226.171
-228.314
-230.8
-233.525
-236.272
-238.817
-241.021
-242.726
-243.741
-244.099
-243.994
-243.759
-243.993
-245.13
-247.305
-250.78
-255.852
-262.296
-269.493
-276.332
-281.143
-282.638
-279.997
-272.123
-257.86
-236.682
-208.678
-174.923
-137.426
-98.005
-58.36
-20.815
11.922
37.352
53.394
58.777
53.146
36.403
8.757
-27.984
-71.149
-118.548
-167.331
-215.886
-263.05
-304.881
-338.514
-361.531
-371.914
-372.46
-366.172
-355.773
-344.928
-334.285
-324.267
-315.662
-308.048
-301.832
-297.26
-293.734
-290.74
-287.502
-283.178
-277.527
-270.691
-262.89
-254.47
-245.752
-236.975
-228.455
-220.527
-213.345
-206.926
-201.209
-196.058
-191.365
-187.072
-183.087
-179.303
-175.611
-171.88
-168.032
-164.037
-159.869
-155.521
-150.986
-146.249
-141.323
-136.253
-131.078
-125.838
-120.565
-115.274
-109.996
-104.771
-99.643
-94.667
-89.881
-85.304
-80.952
-76.833
-72.954
-69.318
-65.917
-62.728
-59.733
-56.918
-54.27
-51.783
-49.441
-47.228
-45.125
-43.115
-41.182
-39.313
-37.492
-35.706
-33.941
-32.186
-30.43
-28.667
-26.888
-25.08
-23.234
-21.338
-19.384
-17.362
-15.262
-13.076
-10.796
-8.416
-5.93
-3.333
-0.623
2.205
5.153
8.222
11.413
14.725
18.159
21.712
25.381
29.164
33.057
37.054
41.152
45.343
49.622
53.983
58.417
62.917
67.476
72.086
76.738
81.425
86.138
90.87
95.612
100.357
105.098
109.827
114.539
119.226
123.884
128.509
133.095
137.639
142.138
146.591
150.994
155.347
159.649
163.9
168.101
172.253
176.356
180.414
184.428
188.401
192.336
196.236
200.105
203.946
207.761
211.554
215.328
219.085
222.825
226.551
230.263
233.96
237.641
241.303
244.943
248.557
252.139
255.684
259.182
262.626
266.005
269.309
272.526
275.643
278.646
281.521
284.253
286.826
289.223
291.427
293.423
295.192
296.717
297.981
298.967
299.659
300.041
300.098
299.816
299.183
298.189
296.823
295.078
292.949
290.432
287.525
284.231
280.551
276.492
272.061
267.27
262.133
256.665
250.885
244.813
238.473
231.889
225.09
218.103
210.961
203.694
196.337
188.927
181.498
174.089
166.737
159.483
152.364
145.42
138.689
132.209
126.015
120.143
114.627
109.498
104.786
100.52
96.723
93.42
90.63
88.371
86.656
85.496
84.896
84.859
85.386
86.472
88.11
90.29
92.997
96.216
99.926
104.107
108.732
113.771
119.194
124.966
131.048
137.402
143.985
150.753
157.664
164.674
171.741
178.821
185.873
192.855
199.727
206.449
212.981
219.285
225.32
231.053
236.451
241.485
246.129
250.359
254.154
257.501
260.385
262.795
264.718
266.133
267.033
267.414
267.277
266.631
265.488
263.861
261.776
259.278
256.406
253.211
249.727
245.973
241.978
237.773
233.397
228.899
224.305
219.62
214.863
210.066
205.264
200.487
195.709
190.852
185.844
180.621
175.158
169.442
163.4
157.004
150.295
143.377
136.495
129.882
123.624
117.804
112.565
107.948
103.912
100.264
96.492
92.2
87.261
81.596
75.132
67.888
60.093
52.411
45.957
41.767
40.495
42.603
48.698
59.501
75.44
96.5
121.475
148.345
175.758
202.4
228.111
254.088
279.335
301.532
315.766
314.417
294.054
254.553
199.983
137.751
70.931
2.056
-66.537
-131.903
-186.18
-224.563
-245.949
-251.707
-246.953
-233.817
-213.081
-187.697
-161.874
-141.663
-131.531
-131.092
-136.083
-141.704
-144.876
-145.282
-145.068
-145.835
-147.932
-150.857
-153.114
-153.777
-152.91
-150.995
-148.929
-147.361
-146.402
-146.027
-146.192
-146.879
-148.089
-149.679
-151.319
-152.733
-153.776
-154.391
-154.616
-154.468
-153.922
-152.984
-151.701
-150.124
-148.317
-146.321
-144.148
-141.825
-139.39
-136.893
-134.398
-131.948
-129.567
-127.271
-125.068
-122.961
-120.958
-119.06
-117.259
-115.551
-113.933
-112.399
-110.952
-109.589
-108.304
-107.087
-105.924
-104.806
-103.727
-102.685
-101.677
-100.699
-99.752
-98.834
-97.948
-97.094
-96.271
-95.475
-94.702
-93.951
-93.22
-92.506
-91.808
-91.124
-90.454
-89.797
-89.155
-88.526
-87.911
-87.308
-86.718
-86.14
-85.572
-85.015
-84.467
-83.927
-83.394
-82.866
-82.344
-81.824
-81.306
-80.786
-80.261
-79.73
-79.188
-78.633
-78.059
-77.463
-76.842
-76.19
-75.504
-74.78
-74.012
-73.198
-72.333
-71.412
-70.432
-69.389
-68.278
-67.098
-65.844
-64.515
-63.109
-61.624
-60.059
-58.415
-56.692
-54.89
-53.013
-51.062
-49.041
-46.953
-44.804
-42.598
-40.342
-38.042
-35.707
-33.344
-30.962
-28.57
-26.178
-23.794
-21.429
-19.094
-16.798
-14.552
-12.365
-10.249
-8.212
-6.264
-4.414
-2.67
-1.042
0.464
1.841
3.082
4.182
5.137
5.941
6.593
7.089
7.428
7.61
7.636
7.506
7.223
6.791
6.213
5.495
4.644
3.664
2.565
1.355
0.041
-1.365
-2.854
-4.417
-6.042
-7.718
-9.435
-11.182
-12.947
-14.72
-16.489
-18.243
-19.972
-21.664
-23.31
-24.898
-26.419
-27.864
-29.223
-30.487
-31.65
-32.703
-33.641
-34.457
-35.146
-35.705
-36.13
-36.419
-36.571
-36.584
-36.46
-36.199
-35.804
-35.277
-34.623
-33.844
-32.946
-31.934
-30.812
-29.587
-28.265
-26.852
-25.356
-23.783
-22.143
-20.445
-18.697
-16.909
-15.092
-13.254
-11.407
-9.56
-7.724
-5.907
-4.119
-2.368
-0.665
0.984
2.57
4.087
5.529
6.89
8.165
9.352
10.449
11.455
12.369
13.192
13.925
14.569
15.125
15.595
15.984
16.295
16.534
16.71
16.834
16.918
16.977
17.026
17.077
17.144
17.239
17.376
17.562
17.808
18.121
18.512
18.988
19.556
20.219
20.978
21.836
22.794
23.849
25.006
26.268
27.639
29.13
30.757
32.536
34.494
36.649
39.018
41.626
44.499
47.672
51.174
55.007
59.158
63.609
68.32
73.256
78.357
83.507
88.649
93.787
98.958
104.296
109.908
115.781
121.97
128.584
135.495
142.426
148.922
154.241
157.849
159.495
158.839
155.572
149.841
142.167
133.607
125.702
119.714
116.685
117.812
124.276
136.776
155.312
179.032
206.5
236.213
266.366
294.704
318.659
335.753
344.166
342.719
330.566
307.858
276.167
237.638
194.434
147.306
95.761
40.876
-13.001
-58.275
-87.584
-97.413
-89.635
-71.103
-48.678
-26.72
-7.074
11.334
29.221
45.782
59.721
69.156
73.138
72.086
67.164
59.871
51.5
43.128
35.56
29.45
25.242
22.997
22.427
23.057
24.321
25.62
26.585
26.958
26.575
25.482
23.767
21.571
19.132
16.686
14.363
12.234
10.316
8.555
6.93
5.418
3.967
2.527
1.062
-0.456
-2.036
-3.681
-5.395
-7.179
-9.034
-10.955
-12.931
-14.945
-16.981
-19.015
-21.035
-23.027
-24.978
-26.877
-28.712
-30.468
-32.131
-33.686
-35.117
-36.411
-37.556
-38.54
-39.355
-39.994
-40.455
-40.738
-40.842
-40.766
-40.509
-40.074
-39.462
-38.678
-37.727
-36.616
-35.355
-33.955
-32.428
-30.79
-29.056
-27.242
-25.363
-23.438
-21.482
-19.514
-17.552
-15.613
-13.715
-11.876
-10.114
-8.446
-6.89
-5.462
-4.178
-3.051
-2.095
-1.323
-0.745
-0.37
-0.207
-0.26
-0.536
-1.036
-1.762
-2.714
-3.888
-5.281
-6.886
-8.696
-10.701
-12.889
-15.248
-17.764
-20.421
-23.204
-26.094
-29.073
-32.122
-35.222
-38.353
-41.494
-44.624
-47.722
-50.767
-53.74
-56.618
-59.383
-62.015
-64.495
-66.806
-68.931
-70.854
-72.562
-74.042
-75.282
-76.272
-77.004
-77.47
-77.665
-77.586
-77.231
-76.598
-75.69
-74.51
-73.06
-71.348
-69.381
-67.166
-64.713
-62.034
-59.139
-56.043
-52.757
-49.297
-45.678
-41.915
-38.025
-34.024
-29.928
-25.756
-21.523
-17.246
-12.942
-8.627
-4.317
-0.027
4.229
8.436
12.582
16.654
20.641
24.534
28.322
31.999
35.558
38.995
42.304
45.484
48.533
51.45
54.237
56.895
59.427
61.837
64.128
66.308
68.381
70.356
72.239
74.038
75.762
77.42
79.021
80.573
82.087
83.571
85.036
86.49
87.944
89.407
90.885
92.389
93.924
95.497
97.113
98.775
100.486
102.246
104.055
105.913
107.816
109.759
111.738
113.747
115.778
117.823
119.872
121.914
123.938
125.932
127.882
129.775
131.597
133.332
134.967
136.487
137.877
139.123
140.208
141.119
141.838
142.352
142.645
142.704
142.516
142.074
141.37
140.4
139.164
137.661
135.891
133.857
131.561
129.004
126.186
123.106
119.766
116.172
112.333
108.255
103.946
99.41
94.657
89.697
84.54
79.2
73.689
68.018
62.213
56.307
50.342
44.37
38.437
32.571
26.811
21.196
15.766
10.572
5.64
0.961
-3.467
-7.666
-11.664
-15.46
-19.108
-22.718
-26.329
-29.958
-33.539
-36.865
-39.804
-42.316
-44.297
-45.719
-46.712
-47.462
-48.472
-50.495
-54.086
-59.704
-67.674
-77.888
-89.909
-103
-115.837
-126.851
-134.551
-137.398
-134.25
-124.646
-108.688
-87.175
-61.559
-33.631
-5.714
19.399
39.168
51.497
54.789
48.061
30.708
2.526
-35.025
-78.897
-126.802
-176.849
-227.967
-280.538
-331.508
-375.35
-408.3
-426.366
-429.216
-421.642
-406.437
-386.952
-367.833
-349.812
-334.736
-324.859
-318.381
-315.127
-314.966
-315.901
-318.349
-322.127
-326.129
-330.49
-334.542
-337.43
-338.873
-338.665
-337.056
-334.717
-332.32
-330.199
-328.438
-327.081
-326.194
-325.8
-325.854
-326.162
-326.385
-326.34
-325.978
-325.296
-324.333
-323.108
-321.617
-319.895
-318.027
-316.075
-314.079
-312.073
-310.061
-308.069
-306.145
-304.324
-302.632
-301.087
-299.692
-298.446
-297.351
-296.401
-295.588
-294.904
-294.342
-293.893
-293.554
-293.316
-293.17
-293.105
-293.104
-293.152
-293.233
-293.336
-293.446
-293.554
-293.65
-293.724
-293.771
-293.78
-293.743
-293.649
-293.489
-293.254
-292.935
-292.525
-292.016
-291.402
-290.679
-289.845
-288.896
-287.831
-286.649
-285.348
-283.928
-282.39
-280.735
-278.964
-277.08
-275.086
-272.985
-270.783
-268.483
-266.091
-263.614
-261.056
-258.425
-255.727
-252.969
-250.158
-247.302
-244.406
-241.479
-238.528
-235.559
-232.579
-229.595
-226.614
-223.642
-220.685
-217.75
-214.842
-211.965
-209.126
-206.329
-203.579
-200.88
-198.237
-195.654
-193.136
-190.685
-188.307
-186.004
-183.781
-181.641
-179.587
-177.622
-175.75
-173.972
-172.292
-170.712
-169.236
-167.865
-166.603
-165.45
-164.411
-163.487
-162.679
-161.989
-161.42
-160.972
-160.646
-160.443
-160.363
-160.407
-160.574
-160.863
-161.274
-161.804
-162.452
-163.214
-164.088
-165.069
-166.153
-167.335
-168.61
-169.973
-171.415
-172.931
-174.514
-176.154
-177.845
-179.575
-181.337
-183.12
-184.915
-186.709
-188.492
-190.254
-191.984
-193.668
-195.297
-196.858
-198.34
-199.73
-201.018
-202.191
-203.239
-204.151
-204.917
-205.527
-205.973
-206.245
-206.336
-206.238
-205.945
-205.449
-204.744
-203.825
-202.687
-201.325
-199.738
-197.922
-195.875
-193.598
-191.09
-188.35
-185.381
-182.182
-178.756
-175.105
-171.232
-167.139
-162.83
-158.31
-153.584
-148.658
-143.538
-138.229
-132.738
-127.07
-121.23
-115.224
-109.057
-102.734
-96.26
-89.642
-82.887
-76.002
-68.996
-61.877
-54.654
-47.334
-39.925
-32.432
-24.86
-17.213
-9.495
-1.71
6.137
14.039
21.99
29.983
38.009
46.061
54.132
62.214
70.303
78.392
86.476
94.55
102.602
110.62
118.582
126.468
134.266
141.963
149.55
157.025
164.384
171.633
178.792
185.879
192.914
199.914
206.884
213.825
220.736
227.622
234.495
241.358
248.195
254.984
261.696
268.303
274.79
281.109
287.167
292.861
298.066
302.667
306.591
309.757
312.078
313.542
314.19
314.146
313.66
312.952
312.191
311.607
311.366
311.456
311.792
312.113
311.964
311.089
309.312
306.311
302.036
296.864
291.414
286.726
284.102
284.548
289.11
299.077
315.285
337.949
366.733
400.535
437.749
476.6
514.768
549.473
578.004
597.924
607.325
604.757
590.058
564.647
530.411
489.787
443.63
390.932
333.233
274.374
221.313
183.68
166.302
169.686
191.083
223.294
260.414
297.386
328.377
350.376
362.199
364.641
361.651
356.818
352.185
348.36
344.027
338.34
331.509
324.357
318.54
314.937
313.391
313.441
314.185
314.824
315.142
315.02
314.299
313.015
311.199
308.89
306.345
303.854
301.55
299.517
297.778
296.268
294.977
293.916
293.05
292.341
291.745
291.215
290.726
290.263
289.815
289.373
288.926
288.464
287.981
287.478
286.964
286.452
285.94
285.422
284.886
284.321
283.723
283.09
282.42
281.709
280.954
280.152
279.304
278.411
277.47
276.474
275.416
274.286
273.079
271.791
270.419
268.96
267.413
265.775
264.046
262.227
260.319
258.32
256.229
254.046
251.771
249.404
246.948
244.405
241.778
239.07
236.287
233.433
230.515
227.536
224.504
221.424
218.303
215.147
211.964
208.759
205.541
202.317
199.095
195.883
192.689
189.521
186.386
183.292
180.247
177.258
174.332
171.475
168.693
165.993
163.381
160.861
158.439
156.119
153.905
151.8
149.806
147.927
146.162
144.513
142.98
141.563
140.26
139.071
137.992
137.022
136.157
135.392
134.723
134.145
133.651
133.236
132.891
132.611
132.386
132.209
132.07
131.962
131.874
131.797
131.722
131.639
131.54
131.415
131.255
131.051
130.796
130.481
130.098
129.64
129.1
128.471
127.747
126.923
125.994
124.957
123.807
122.542
121.16
119.661
118.045
116.313
114.466
112.507
110.441
108.272
106.007
103.652
101.215
98.706
96.133
93.509
90.844
88.15
85.44
82.726
80.022
77.341
74.698
72.107
69.582
67.139
64.792
62.558
60.45
58.483
56.672
55.029
53.569
52.303
51.243
50.398
49.779
49.393
49.248
49.35
49.702
50.308
51.168
52.281
53.646
55.257
57.108
59.19
61.494
64.008
66.72
69.614
72.674
75.882
79.219
82.664
86.196
89.789
93.417
97.052
100.664
104.224
107.704
111.071
114.296
117.349
120.205
122.836
125.217
127.322
129.123
130.595
131.716
132.463
132.816
132.754
132.263
131.329
129.944
128.105
125.807
123.046
119.814
116.104
111.915
107.25
102.12
96.536
90.518
84.092
77.295
70.173
62.77
55.129
47.289
39.285
31.163
22.963
14.727
6.507
-1.652
-9.716
-17.663
-25.476
-33.16
-40.711
-48.133
-55.47
-62.759
-70.052
-77.403
-84.844
-92.401
-100.11
-108.034
-116.195
-124.553
-132.973
-141.213
-149.031
-156.241
-162.654
-168.004
-172.104
-174.974
-176.826
-178.172
-179.552
-181.217
-183.398
-186.427
-190.358
-194.848
-199.18
-202.057
-202.083
-198.391
-190.084
-175.957
-155.325
-128.079
-94.564
-56.671
-16.616
24.637
65.116
103.262
137.977
165.221
181.886
185.189
172.031
144.345
105.458
58.955
8.822
-45.47
-105.208
-169.101
-233.201
-288.711
-327.653
-346.964
-347.515
-335.712
-317.245
-294.701
-271.267
-247.174
-223.628
-203.945
-187.953
-176.225
-169.054
-164.692
-163.776
-166.411
-171.612
-179.087
-187.309
-194.823
-201.031
-205.418
-207.982
-209.086
-209.073
-208.399
-207.643
-207.171
-207.196
-207.822
-208.964
-210.489
-212.231
-213.957
-215.395
-216.381
-216.839
-216.747
-216.155
-215.1
-213.601
-211.71
-209.481
-206.962
-204.19
-201.191
-197.985
-194.587
-191.016
-187.287
-183.412
-179.394
-175.232
-170.923
-166.461
-161.847
-157.086
-152.186
-147.157
-142.007
-136.744
-131.374
-125.904
-120.339
-114.689
-108.96
-103.161
-97.303
-91.398
-85.461
-79.509
-73.557
-67.617
-61.701
-55.82
-49.985
-44.209
-38.501
-32.873
-27.334
-21.898
-16.575
-11.378
-6.318
-1.404
3.355
7.951
12.376
16.624
20.689
24.566
28.252
31.743
35.036
38.128
41.016
43.701
46.181
48.455
50.524
52.389
54.051
55.512
56.773
57.837
58.707
59.386
59.879
60.188
60.32
60.278
60.069
59.697
59.169
58.492
57.672
56.715
55.627
54.416
53.088
51.647
50.101
48.455
46.713
44.881
42.965
40.967
38.893
36.747
34.532
32.252
29.91
27.51
25.054
22.545
19.986
17.379
14.726
12.029
9.29
6.509
3.687
0.827
-2.072
-5.009
-7.983
-10.994
-14.04
-17.123
-20.24
-23.39
-26.574
-29.79
-33.036
-36.311
-39.613
-42.938
-46.285
-49.65
-53.03
-56.42
-59.816
-63.214
-66.609
-69.997
-73.37
-76.725
-80.055
-83.354
-86.616
-89.832
-92.997
-96.102
-99.141
-102.106
-104.99
-107.784
-110.483
-113.078
-115.562
-117.93
-120.174
-122.288
-124.266
-126.104
-127.796
-129.338
-130.727
-131.96
-133.035
-133.951
-134.707
-135.303
-135.741
-136.021
-136.144
-136.114
-135.934
-135.607
-135.139
-134.535
-133.803
-132.95
-131.986
-130.919
-129.759
-128.517
-127.204
-125.83
-124.406
-122.945
-121.457
-119.953
-118.447
-116.951
-115.475
-114.034
-112.638
-111.298
-110.026
-108.831
-107.721
-106.706
-105.793
-104.989
-104.301
-103.738
-103.306
-103.011
-102.856
-102.845
-102.978
-103.255
-103.671
-104.22
-104.894
-105.686
-106.591
-107.602
-108.715
-109.925
-111.228
-112.622
-114.1
-115.662
-117.302
-119.019
-120.81
-122.674
-124.607
-126.608
-128.671
-130.788
-132.949
-135.139
-137.338
-139.523
-141.663
-143.729
-145.69
-147.513
-149.158
-150.574
-151.721
-152.572
-153.118
-153.371
-153.358
-153.097
-152.636
-152.07
-151.442
-150.748
-149.943
-148.874
-147.411
-145.529
-143.162
-140.225
-136.864
-133.342
-130.105
-127.919
-127.381
-128.836
-132.69
-139.163
-147.96
-158.517
-169.78
-180.038
-187.847
-191.952
-190.914
-183.707
-169.956
-149.737
-123.96
-94.443
-63.007
-31.757
-3.313
20.01
36.238
43.644
41.329
29.258
7.705
-21.589
-56.084
-94.17
-133.478
-172.444
-209.809
-241.55
-264.732
-277.289
-277.837
-268.638
-251.786
-228.925
-201.762
-171.81
-142.602
-117.949
-101.793
-95.641
-96.758
-101.801
-106.767
-109.457
-110.827
-111.651
-112.505
-113.094
-112.039
-108.889
-103.995
-98.096
-92.205
-86.792
-81.913
-77.708
-74.225
-71.435
-69.292
-67.554
-65.917
-64.244
-62.483
-60.61
-58.664
-56.649
-54.55
-52.397
-50.229
-48.069
-45.944
-43.866
-41.831
-39.862
-37.969
-36.158
-34.437
-32.806
-31.258
-29.784
-28.373
-27.012
-25.695
-24.424
-23.198
-22.018
-20.881
-19.782
-18.718
-17.683
-16.671
-15.678
-14.695
-13.72
-12.755
-11.801
-10.863
-9.947
-9.057
-8.195
-7.366
-6.572
-5.815
-5.099
-4.425
-3.795
-3.214
-2.684
-2.211
-1.799
-1.451
-1.17
-0.959
-0.819
-0.752
-0.759
-0.838
-0.99
-1.213
-1.504
-1.864
-2.288
-2.774
-3.319
-3.921
-4.574
-5.274
-6.016
-6.796
-7.608
-8.446
-9.304
-10.178
-11.062
-11.951
-12.84
-13.725
-14.602
-15.467
-16.317
-17.148
-17.958
-18.746
-19.508
-20.245
-20.957
-21.643
-22.304
-22.942
-23.56
-24.16
-24.745
-25.319
-25.886
-26.45
-27.016
-27.587
-28.169
-28.766
-29.383
-30.025
-30.696
-31.402
-32.147
-32.933
-33.766
-34.648
-35.581
-36.567
-37.607
-38.701
-39.849
-41.05
-42.301
-43.6
-44.943
-46.327
-47.745
-49.193
-50.663
-52.148
-53.639
-55.129
-56.608
-58.065
-59.49
-60.873
-62.202
-63.467
-64.656
-65.758
-66.762
-67.655
-68.428
-69.067
-69.564
-69.906
-70.083
-70.086
-69.907
-69.535
-68.965
-68.19
-67.204
-66.003
-64.582
-62.937
-61.067
-58.97
-56.645
-54.09
-51.308
-48.3
-45.067
-41.615
-37.947
-34.069
-29.988
-25.71
-21.242
-16.592
-11.769
-6.781
-1.636
3.654
9.081
14.633
20.299
26.066
31.924
37.858
43.859
49.914
56.01
62.139
68.288
74.447
80.606
86.753
92.877
98.966
105.007
110.987
116.893
122.714
128.437
134.053
139.553
144.929
150.174
155.283
160.25
165.069
169.732
174.23
178.554
182.699
186.658
190.426
193.999
197.371
200.54
203.508
206.275
208.838
211.189
213.311
215.192
216.832
218.231
219.393
220.323
221.024
221.512
221.819
221.982
222.034
221.996
221.865
221.642
221.337
220.966
220.555
220.113
219.616
219.046
218.4
217.682
216.905
216.043
215.005
213.685
211.979
209.811
207.163
204.017
200.308
196.035
191.261
186.131
180.932
175.929
171.266
167.032
163.297
159.963
156.887
153.902
150.594
146.575
141.584
135.443
128.27
120.686
113.531
107.595
103.848
103.177
106.48
114.723
128.317
146.86
169.365
194.712
221.703
249.074
275.071
297.443
314.279
324.247
326.634
320.88
306.283
282.562
251.102
214.69
175.761
136.156
95.559
52.725
9.518
-29.973
-59.849
-74.034
-71.121
-54.604
-31.005
-7.568
10.976
23.87
33.179
40.781
47.209
51.798
53.135
51.128
47.278
43.055
39.393
36.655
34.695
33.56
33.627
34.89
36.816
38.765
40.296
41.281
41.853
42.1
41.919
41.287
40.345
39.335
38.486
37.9
37.566
37.436
37.517
37.829
38.373
39.119
40.011
41.005
42.072
43.197
44.362
45.535
46.692
47.812
48.88
49.894
50.855
51.766
52.632
53.462
54.255
55.011
55.733
56.424
57.088
57.731
58.359
58.978
59.597
60.225
60.868
61.529
62.209
62.908
63.624
64.356
65.1
65.857
66.625
67.403
68.191
68.987
69.788
70.592
71.395
72.192
72.976
73.74
74.479
75.184
75.849
76.466
77.03
77.531
77.964
78.32
78.593
78.774
78.856
78.831
78.692
78.43
78.04
77.514
76.848
76.034
75.07
73.95
72.672
71.233
69.631
67.864
65.934
63.839
61.582
59.166
56.592
53.867
50.994
47.98
44.832
41.556
38.162
34.656
31.048
27.347
23.563
19.705
15.783
11.808
7.789
3.738
-0.335
-4.42
-8.505
-12.582
-16.64
-20.67
-24.661
-28.606
-32.496
-36.324
-40.083
-43.766
-47.367
-50.883
-54.308
-57.639
-60.873
-64.007
-67.039
-69.969
-72.796
-75.518
-78.137
-80.654
-83.068
-85.382
-87.596
-89.713
-91.734
-93.66
-95.493
-97.235
-98.887
-100.452
-101.931
-103.325
-104.637
-105.867
-107.017
-108.088
-109.079
-109.989
-110.819
-111.567
-112.231
-112.81
-113.301
-113.702
-114.012
-114.227
-114.344
-114.361
-114.273
-114.078
-113.772
-113.351
-112.811
-112.148
-111.358
-110.44
-109.39
-108.208
-106.89
-105.436
-103.845
-102.116
-100.249
-98.243
-96.098
-93.814
-91.394
-88.838
-86.152
-83.34
-80.406
-77.357
-74.198
-70.937
-67.581
-64.135
-60.608
-57.006
-53.337
-49.61
-45.834
-42.02
-38.179
-34.321
-30.46
-26.607
-22.776
-18.974
-15.213
-11.501
-7.848
-4.261
-0.748
2.684
6.03
9.281
12.431
15.47
18.393
21.194
23.871
26.418
28.832
31.109
33.248
35.252
37.12
38.849
40.431
41.853
43.103
44.18
45.079
45.797
46.339
46.716
46.954
47.099
47.186
47.239
47.274
47.289
47.288
47.278
47.26
47.246
47.252
47.288
47.388
47.589
47.879
48.23
48.557
48.716
48.605
48.119
47.146
45.68
43.766
41.512
39.128
36.764
34.486
32.42
30.625
28.96
27.201
24.949
21.76
17.516
12.214
5.766
-1.785
-10.164
-18.795
-26.692
-32.895
-36.803
-37.818
-35.238
-28.367
-16.702
-0.42
19.652
42.689
67.807
93.684
118.632
140.536
157.149
166.903
168.755
161.505
144.847
119.829
87.861
50.626
8.774
-38.178
-88.993
-139.412
-182.405
-211.127
-222.419
-217.817
-203.044
-184.017
-164.382
-145.864
-128.063
-110.847
-95.448
-83.427
-76.597
-75.824
-80.603
-89.635
-101.282
-114.024
-126.566
-137.937
-147.313
-154.152
-158.362
-160.219
-160.237
-159.047
-157.281
-155.33
-153.494
-151.994
-150.869
-150.105
-149.601
-149.149
-148.524
-147.6
-146.328
-144.7
-142.759
-140.522
-138.012
-135.287
-132.425
-129.498
-126.545
-123.574
-120.575
-117.539
-114.469
-111.372
-108.252
-105.101
-101.915
-98.699
-95.464
-92.227
-89.006
-85.809
-82.643
-79.511
-76.421
-73.38
-70.396
-67.472
-64.61
-61.814
-59.088
-56.439
-53.875
-51.4
-49.018
-46.73
-44.541
-42.452
-40.465
-38.58
-36.8
-35.125
-33.558
-32.102
-30.759
-29.533
-28.427
-27.443
-26.583
-25.849
-25.242
-24.761
-24.408
-24.18
-24.079
-24.101
-24.247
-24.514
-24.901
-25.405
-26.023
-26.752
-27.587
-28.523
-29.555
-30.676
-31.879
-33.158
-34.504
-35.909
-37.364
-38.86
-40.388
-41.937
-43.496
-45.053
-46.598
-48.117
-49.598
-51.03
-52.401
-53.697
-54.908
-56.022
-57.027
-57.914
-58.671
-59.288
-59.757
-60.07
-60.218
-60.195
-59.996
-59.616
-59.052
-58.302
-57.364
-56.239
-54.928
-53.435
-51.762
-49.916
-47.902
-45.728
-43.404
-40.938
-38.343
-35.631
-32.814
-29.907
-26.924
-23.881
-20.794
-17.681
-14.557
-11.44
-8.348
-5.299
-2.31
0.602
3.418
6.124
8.702
11.138
13.416
15.523
17.447
19.176
20.7
22.01
23.098
23.96
24.589
24.984
25.144
25.068
24.758
24.219
23.455
22.472
21.28
19.889
18.309
16.553
14.636
12.573
10.38
8.075
5.674
3.197
0.662
-1.91
-4.501
-7.09
-9.656
-12.18
-14.641
-17.02
-19.296
-21.452
-23.471
-25.335
-27.029
-28.539
-29.852
-30.956
-31.84
-32.496
-32.916
-33.094
-33.024
-32.705
-32.135
-31.316
-30.252
-28.948
-27.409
-25.644
-23.662
-21.472
-19.085
-16.513
-13.769
-10.865
-7.817
-4.642
-1.355
2.024
5.477
8.985
12.527
16.086
19.643
23.181
26.685
30.137
33.523
36.83
40.05
43.171
46.184
49.079
51.846
54.479
56.974
59.328
61.535
63.59
65.489
67.234
68.83
70.277
71.571
72.705
73.661
74.428
75.006
75.39
75.579
75.58
75.408
75.097
74.702
74.269
73.83
73.409
73.014
72.652
72.346
72.125
72.027
72.096
72.367
72.872
73.641
74.667
75.909
77.282
78.626
79.764
80.593
81.087
81.33
81.515
81.814
82.333
83.204
84.598
86.556
88.874
91.071
92.391
92.112
89.864
85.443
78.597
69.341
58.182
46.127
34.816
26.118
21.49
22.251
29.831
45.252
68.857
100.23
137.922
179.807
223.707
267.041
306.828
340.233
364.722
378.523
380.889
371.701
351.983
323.706
288.711
249.783
208.954
167.809
130.527
100.384
80.641
74.153
78.744
91.762
110.49
131.275
153.394
176.046
197.604
217.597
235.016
249.199
260.566
269.54
276.8
283.3
289.797
296.69
304.083
311.862
319.753
327.49
334.85
341.538
347.273
351.951
355.592
358.315
360.322
361.777
362.799
363.499
363.96
364.233
364.364
364.369
364.241
363.984
363.6
363.094
362.484
361.769
360.94
359.976
358.848
357.528
355.99
354.221
352.224
350.005
347.576
344.954
342.16
339.22
336.161
333.004
329.763
326.454
323.093
319.697
316.286
312.878
309.49
306.136
302.828
299.574
296.378
293.243
290.167
287.145
284.17
281.236
278.335
275.46
272.602
269.752
266.899
264.03
261.134
258.197
255.203
252.136
248.979
245.715
242.328
238.802
235.121
231.27
227.235
223.004
218.564
213.905
209.018
203.894
198.526
192.909
187.04
180.916
174.538
167.908
161.029
153.907
146.551
138.969
131.173
123.175
114.991
106.635
98.126
89.483
80.727
71.878
62.962
54.001
45.02
36.046
27.104
18.221
9.423
0.736
-7.815
-16.203
-24.405
-32.397
-40.155
-47.659
-54.888
-61.822
-68.443
-74.737
-80.688
-86.284
-91.514
-96.368
-100.84
-104.925
-108.618
-111.919
-114.828
-117.349
-119.485
-121.243
-122.632
-123.661
-124.344
-124.693
-124.723
-124.452
-123.897
-123.076
-122.01
-120.72
-119.226
-117.551
-115.718
-113.748
-111.665
-109.491
-107.25
-104.964
-102.655
-100.346
-98.057
-95.811
-93.626
-91.523
-89.521
-87.636
-85.886
-84.287
-82.853
-81.597
-80.532
-79.668
-79.015
-78.581
-78.372
-78.394
-78.651
-79.144
-79.875
-80.843
-82.049
-83.488
-85.159
-87.056
-89.174
-91.507
-94.049
-96.79
-99.723
-102.838
-106.124
-109.569
-113.164
-116.896
-120.752
-124.72
-128.788
-132.943
-137.172
-141.462
-145.799
-150.172
-154.566
-158.971
-163.372
-167.76
-172.123
-176.451
-180.735
-184.968
-189.141
-193.25
-197.287
-201.248
-205.128
-208.924
-212.634
-216.254
-219.784
-223.223
-226.576
-229.844
-233.034
-236.152
-239.203
-242.194
-245.135
-248.031
-250.889
-253.716
-256.516
-259.297
-262.068
-264.838
-267.616
-270.415
-273.244
-276.113
-279.033
-282.01
-285.051
-288.159
-291.337
-294.589
-297.918
-301.332
-304.844
-308.461
-312.188
-316.021
-319.957
-323.983
-328.084
-332.241
-336.423
-340.602
-344.752
-348.846
-352.862
-356.783
-360.594
-364.275
-367.794
-371.128
-374.267
-377.215
-379.987
-382.602
-385.068
-387.398
-389.637
-391.844
-394.083
-396.428
-398.932
-401.624
-404.545
-407.753
-411.249
-414.966
-418.75
-422.337
-425.497
-428.077
-429.891
-430.777
-430.723
-429.86
-428.513
-427.125
-425.958
-425.147
-424.871
-425.159
-425.727
-425.946
-424.804
-421.309
-414.837
-404.833
-390.649
-371.826
-348.137
-319.882
-288.172
-253.99
-218.537
-183.89
-151.548
-122.749
-98.22
-77.02
-60.401
-52.139
-56.1
-76.087
-110.658
-153.939
-200.534
-246.517
-292.577
-340.345
-388.135
-430.962
-460.688
-471.389
-461.889
-435.502
-399.066
-359.651
-323.052
-292.537
-269.558
-253.474
-242.001
-233.91
-227.676
-222.959
-221.312
-222.974
-227.911
-235.438
-243.248
-249.744
-254.309
-256.628
-257.024
-256.003
-253.745
-250.583
-247.184
-244.02
-241.344
-239.316
-237.868
-236.828
-236.108
-235.544
-234.864
-233.928
-232.675
-231.075
-229.186
-227.057
-224.705
-222.183
-219.552
-216.848
-214.097
-211.296
-208.417
-205.448
-202.382
-199.208
-195.921
-192.505
-188.941
-185.22
-181.339
-177.295
-173.087
-168.708
-164.153
-159.419
-154.503
-149.402
-144.117
-138.645
-132.987
-127.146
-121.124
-114.927
-108.563
-102.038
-95.36
-88.538
-81.578
-74.489
-67.282
-59.969
-52.56
-45.072
-37.519
-29.919
-22.29
-14.653
-7.026
0.568
8.11
15.578
22.952
30.21
37.331
44.292
51.072
57.649
64.002
70.11
75.952
81.508
86.759
91.688
96.276
100.509
104.371
107.849
110.931
113.607
115.869
117.708
119.12
120.103
120.655
120.779
120.477
119.755
118.622
117.087
115.162
112.861
110.2
107.196
103.869
100.238
96.328
92.161
87.762
83.158
78.377
73.447
68.396
63.255
58.054
52.822
47.59
42.39
37.25
32.202
27.273
22.492
17.886
13.482
9.303
5.373
1.714
-1.655
-4.716
-7.453
-9.85
-11.897
-13.583
-14.899
-15.84
-16.401
-16.58
-16.379
-15.799
-14.845
-13.523
-11.841
-9.81
-7.441
-4.748
-1.746
1.549
5.119
8.944
13.005
17.28
21.749
26.387
31.175
36.088
41.106
46.206
51.367
56.568
61.789
67.011
72.215
77.384
82.5
87.549
92.516
97.389
102.156
106.809
111.339
115.74
120.006
124.135
128.124
131.973
135.682
139.253
142.69
145.999
149.187
152.26
155.229
158.103
160.893
163.612
166.272
168.884
171.461
174.015
176.557
179.099
181.653
184.23
186.841
189.496
192.206
194.98
197.826
200.75
203.758
206.853
210.038
213.314
216.682
220.14
223.688
227.322
231.039
234.835
238.704
242.637
246.625
250.656
254.718
258.798
262.879
266.944
270.979
274.969
278.898
282.752
286.518
290.182
293.73
297.151
300.432
303.56
306.522
309.304
311.894
314.283
316.463
318.427
320.168
321.681
322.964
324.015
324.832
325.407
325.731
325.79
325.576
325.089
324.326
323.29
321.994
320.456
318.712
316.803
314.761
312.608
310.36
308.021
305.604
303.122
300.585
298.021
295.452
292.903
290.419
288.024
285.71
283.441
281.123
278.642
275.924
272.886
269.444
265.599
261.391
256.931
252.436
248.061
243.897
240.084
236.681
233.572
230.563
227.287
223.259
218.219
211.954
204.163
194.83
184.287
173.147
162.473
153.466
147.039
144.23
146.217
153.701
166.928
185.518
208.275
233.874
260.986
287.61
311.431
330.412
342.471
346.191
341.038
326.263
302.125
270.711
233.611
192.288
148.269
101.332
53.932
11.594
-21.083
-39.494
-43.246
-36.926
-25.054
-12.249
-1.02
8.919
17.58
25.124
31.321
35.17
36.61
36.089
34.336
32.604
31.581
31.415
32.151
33.552
35.335
37.301
39.135
40.473
41.145
41.117
40.438
39.279
37.788
36.081
34.294
32.529
30.837
29.25
27.78
26.415
25.15
23.98
22.891
21.874
20.921
20.011
19.117
18.204
17.228
16.148
14.921
13.521
11.937
10.16
8.191
6.036
3.703
1.207
-1.432
-4.198
-7.078
-10.055
-13.113
-16.23
-19.38
-22.538
-25.676
-28.768
-31.788
-34.712
-37.517
-40.184
-42.692
-45.023
-47.161
-49.091
-50.794
-52.255
-53.457
-54.385
-55.028
-55.373
-55.412
-55.136
-54.544
-53.631
-52.401
-50.856
-49
-46.841
-44.386
-41.647
-38.635
-35.363
-31.847
-28.103
-24.151
-20.009
-15.7
-11.244
-6.665
-1.988
2.765
7.57
12.401
17.235
22.047
26.815
31.515
36.125
40.624
44.99
49.205
53.25
57.11
60.77
64.218
67.443
70.438
73.195
75.709
77.979
80.003
81.781
83.315
84.61
85.669
86.5
87.111
87.509
87.704
87.708
87.532
87.186
86.683
86.036
85.257
84.357
83.35
82.247
81.06
79.798
78.474
77.095
75.671
74.21
72.717
71.198
69.658
68.1
66.526
64.935
63.329
61.706
60.064
58.4
56.711
54.991
53.237
51.444
49.605
47.716
45.77
43.763
41.688
39.541
37.317
35.012
32.622
30.144
27.576
24.917
22.166
19.324
16.393
13.374
10.272
7.091
3.837
0.517
-2.861
-6.288
-9.754
-13.249
-16.76
-20.276
-23.784
-27.27
-30.722
-34.124
-37.462
-40.724
-43.894
-46.959
-49.907
-52.722
-55.394
-57.909
-60.258
-62.428
-64.409
-66.192
-67.768
-69.131
-70.273
-71.189
-71.875
-72.328
-72.546
-72.53
-72.279
-71.795
-71.082
-70.142
-68.981
-67.605
-66.021
-64.237
-62.26
-60.102
-57.773
-55.285
-52.65
-49.882
-46.992
-43.994
-40.904
-37.735
-34.503
-31.221
-27.908
-24.579
-21.255
-17.955
-14.698
-11.503
-8.389
-5.374
-2.477
0.287
2.904
5.36
7.639
9.725
11.603
13.255
14.669
15.831
16.727
17.343
17.667
17.693
17.418
16.835
15.935
14.704
13.127
11.192
8.901
6.253
3.249
-0.104
-3.795
-7.801
-12.085
-16.618
-21.378
-26.344
-31.499
-36.809
-42.232
-47.727
-53.26
-58.802
-64.343
-69.875
-75.382
-80.876
-86.38
-91.919
-97.54
-103.282
-109.161
-115.212
-121.481
-128.01
-134.878
-142.174
-149.898
-157.985
-166.296
-174.573
-182.591
-190.166
-197.018
-202.832
-207.517
-211.183
-214.192
-217.174
-220.543
-224.441
-229.098
-234.738
-241.187
-247.912
-253.879
-257.564
-257.809
-253.871
-244.856
-229.939
-208.719
-181.094
-147.806
-110.404
-70.169
-29.062
10.454
46.757
77.618
101.876
119.263
126.899
123.386
108.265
80.837
45.028
3.176
-44.642
-95.292
-146.715
-193.67
-227.052
-242.214
-237.176
-214.124
-180.412
-143.131
-108.899
-82.245
-64.97
-56.257
-53.003
-53.159
-54.72
-57.031
-61.526
-68.131
-76.356
-85.578
-94
-100.483
-104.825
-107.081
-107.835
-107.944
-108.019
-108.375
-109.218
-110.678
-112.749
-115.411
-118.601
-122.083
-125.615
-129.086
-132.442
-135.68
-138.838
-141.917
-144.897
-147.798
-150.653
-153.487
-156.323
-159.18
-162.057
-164.957
-167.887
-170.841
-173.815
-176.801
-179.779
-182.728
-185.634
-188.488
-191.287
-194.035
-196.729
-199.365
-201.936
-204.433
-206.845
-209.163
-211.377
-213.472
-215.437
-217.262
-218.939
-220.465
-221.836
-223.046
-224.088
-224.955
-225.64
-226.138
-226.444
-226.551
-226.456
-226.154
-225.644
-224.928
-224.006
-222.879
-221.549
-220.019
-218.292
-216.371
-214.261
-211.965
-209.487
-206.834
-204.011
-201.024
-197.881
-194.59
-191.159
-187.596
-183.911
-180.113
-176.211
-172.215
-168.135
-163.979
-159.757
-155.479
-151.154
-146.791
-142.4
-137.989
-133.566
-129.139
-124.716
-120.303
-115.905
-111.529
-107.179
-102.861
-98.577
-94.333
-90.132
-85.977
-81.87
-77.814
-73.811
-69.862
-65.968
-62.129
-58.346
-54.618
-50.944
-47.324
-43.756
-40.238
-36.77
-33.348
-29.971
-26.636
-23.34
-20.081
-16.856
-13.662
-10.497
-7.359
-4.245
-1.152
1.92
4.975
8.013
11.037
14.048
17.047
20.036
23.016
25.987
28.95
31.906
34.854
37.795
40.729
43.655
46.573
49.481
52.379
55.266
58.14
60.998
63.839
66.66
69.458
72.231
74.974
77.687
80.364
83.003
85.602
88.156
90.664
93.121
95.526
97.875
100.166
102.397
104.565
106.668
108.706
110.677
112.58
114.415
116.181
117.878
119.506
121.065
122.555
123.976
125.332
126.622
127.85
129.018
130.129
131.187
132.196
133.16
134.085
134.973
135.829
136.659
137.466
138.254
139.03
139.797
140.559
141.322
142.09
142.866
143.653
144.452
145.265
146.092
146.933
147.787
148.653
149.53
150.416
151.31
152.208
153.109
154.006
154.895
155.768
156.619
157.437
158.212
158.933
159.59
160.173
160.673
161.081
161.387
161.585
161.666
161.624
161.45
161.136
160.673
160.052
159.267
158.314
157.191
155.895
154.423
152.776
150.958
148.973
146.82
144.497
141.992
139.299
136.423
133.369
130.144
126.756
123.22
119.562
115.829
112.069
108.322
104.614
100.953
97.357
93.851
90.465
87.233
84.17
81.28
78.589
76.141
73.969
72.069
70.387
68.803
67.198
65.5
63.637
61.526
59.142
56.521
53.774
51.137
48.841
46.992
45.723
45.18
45.271
45.752
46.22
46.041
44.78
42.3
38.348
32.656
25.468
17.43
9.698
3.945
1.418
2.928
9.542
22.366
41.924
68.123
99.907
135.356
172.754
210.449
246.19
277.442
301.838
317.275
322.396
316.494
299.045
270.83
234.158
191.49
145.085
95.619
42.566
-12.287
-64.689
-108.344
-136.076
-144.323
-134.161
-109.992
-79.631
-51.097
-29.266
-16.743
-12.254
-11.651
-12.559
-13.312
-13.78
-15.805
-19.567
-24.675
-30.65
-36.135
-40.413
-43.165
-44.234
-44.034
-43.215
-42.402
-41.972
-42.02
-42.553
-43.605
-45.181
-47.23
-49.573
-51.901
-54.022
-55.858
-57.381
-58.621
-59.592
-60.283
-60.713
-60.937
-60.997
-60.932
-60.774
-60.534
-60.242
-59.938
-59.654
-59.415
-59.242
-59.14
-59.115
-59.168
-59.293
-59.485
-59.745
-60.072
-60.467
-60.929
-61.453
-62.034
-62.666
-63.339
-64.042
-64.764
-65.496
-66.23
-66.962
-67.688
-68.404
-69.108
-69.796
-70.463
-71.102
-71.707
-72.27
-72.785
-73.245
-73.643
-73.975
-74.237
-74.424
-74.534
-74.562
-74.507
-74.365
-74.133
-73.808
-73.389
-72.872
-72.256
-71.541
-70.726
-69.811
-68.795
-67.681
-66.469
-65.161
-63.758
-62.261
-60.674
-58.997
-57.234
-55.388
-53.46
-51.455
-49.376
-47.227
-45.012
-42.735
-40.4
-38.012
-35.574
-33.092
-30.569
-28.011
-25.421
-22.806
-20.168
-17.515
-14.85
-12.179
-9.506
-6.836
-4.175
-1.526
1.104
3.712
6.293
8.841
11.353
13.823
16.246
18.619
20.935
23.192
25.384
27.507
29.557
31.53
33.422
35.23
36.95
38.579
40.114
41.553
42.894
44.135
45.274
46.311
47.244
48.072
48.797
49.417
49.933
50.346
50.657
50.866
50.977
50.99
50.909
50.737
50.478
50.134
49.711
49.213
48.645
48.012
47.32
46.576
45.786
44.957
44.096
43.211
42.31
41.399
40.488
39.583
38.694
37.827
36.992
36.197
35.45
34.76
34.135
33.584
33.115
32.738
32.459
32.287
32.23
32.295
32.489
32.818
33.29
33.911
34.686
35.622
36.724
37.995
39.439
41.06
42.859
44.839
46.999
49.34
51.863
54.567
57.45
60.51
63.746
67.155
70.733
74.475
78.376
82.428
86.625
90.958
95.419
99.999
104.688
109.475
114.35
119.301
124.317
129.386
134.491
139.618
144.75
149.87
154.961
160.007
164.989
169.893
174.703
179.406
183.992
188.446
192.755
196.906
200.882
204.669
208.253
211.619
214.754
217.646
220.285
222.664
224.78
226.627
228.199
229.485
230.467
231.134
231.479
231.499
231.196
230.579
229.658
228.454
226.997
225.317
223.443
221.398
219.196
216.851
214.369
211.767
209.075
206.314
203.49
200.596
197.61
194.513
191.295
187.928
184.359
180.509
176.291
171.633
166.478
160.807
154.596
147.766
140.302
132.265
123.803
115.216
106.803
98.727
91.189
84.443
78.531
73.401
68.805
64.067
58.645
52.22
44.369
34.899
24.162
12.72
1.593
-7.583
-13.503
-14.957
-10.508
0.69
18.73
43.157
72.638
105.188
138.927
171.478
199.927
221.808
234.962
237.771
229.481
209.617
178.582
138.406
91.57
40.121
-15.181
-74.616
-136.794
-197.321
-249.083
-285.384
-303.495
-305.163
-296.149
-282.504
-267.783
-253.428
-238.863
-223.612
-208.587
-195.555
-186.64
-182.944
-184.351
-189.979
-198.394
-208.436
-219.13
-229.236
-237.7
-243.903
-247.512
-248.642
-247.784
-245.362
-241.888
-238.094
-234.495
-231.36
-228.841
-226.842
-225.185
-223.755
-222.351
-220.704
-218.671
-216.188
-213.245
-209.93
-206.304
-202.399
-198.28
-194.01
-189.639
-185.216
-180.775
-176.338
-171.936
-167.596
-163.346
-159.209
-155.2
-151.328
-147.598
-144.009
-140.566
-137.275
-134.139
-131.161
-128.343
-125.681
-123.169
-120.797
-118.552
-116.421
-114.39
-112.443
-110.565
-108.741
-106.958
-105.203
-103.461
-101.715
-99.946
-98.135
-96.262
-94.311
-92.262
-90.099
-87.806
-85.368
-82.774
-80.012
-77.073
-73.947
-70.629
-67.11
-63.386
-59.455
-55.316
-50.97
-46.42
-41.669
-36.726
-31.599
-26.299
-20.839
-15.231
-9.492
-3.638
2.311
8.337
14.418
20.532
26.657
32.77
38.847
44.865
50.801
56.631
62.334
67.888
73.272
78.467
83.455
88.219
92.742
97.011
101.013
104.738
108.175
111.318
114.16
116.699
118.931
120.856
122.477
123.796
124.817
125.549
125.998
126.175
126.091
125.758
125.191
124.404
123.413
122.235
120.887
119.386
117.749
115.994
114.139
112.201
110.196
108.14
106.049
103.937
101.819
99.706
97.61
95.542
93.51
91.522
89.585
87.705
85.884
84.127
82.434
80.807
79.244
77.744
76.304
74.919
73.584
72.293
71.039
69.815
68.612
67.422
66.236
65.045
63.838
62.608
61.345
60.04
58.685
57.27
55.789
54.234
52.6
50.882
49.075
47.177
45.186
43.099
40.918
38.643
36.276
33.82
31.278
28.656
25.958
23.193
20.368
17.491
14.573
11.624
8.654
5.675
2.698
-0.267
-3.206
-6.109
-8.963
-11.756
-14.477
-17.114
-19.655
-22.089
-24.406
-26.596
-28.653
-30.568
-32.336
-33.952
-35.414
-36.716
-37.858
-38.839
-39.657
-40.317
-40.822
-41.175
-41.379
-41.449
-41.396
-41.237
-40.988
-40.659
-40.254
-39.795
-39.302
-38.773
-38.207
-37.606
-36.969
-36.322
-35.706
-35.123
-34.563
-34.11
-33.858
-33.772
-33.87
-34.177
-34.533
-35.402
-37.24
-39.412
-41.735
-43.048
-41.955
-40.018
-38.274
-38.266
-42.107
-47.905
-54.049
-59.414
-62.163
-63.553
-64.862
-66.367
-68.859
-71.859
-74.749
-77.608
-80.332
-82.957
-85.625
-88.261
-90.81
-93.295
-95.726
-98.159
-100.683
-103.374
-106.306
-109.525
-113.039
-116.883
-121.126
-125.761
-130.722
-135.84
-140.806
-145.422
-149.584
-153.118
-155.872
-157.824
-159.015
-159.738
-160.517
-161.66
-163.367
-165.901
-169.249
-173.081
-176.862
-179.647
-180.343
-178.178
-172.295
-161.717
-145.939
-124.905
-99.13
-69.821
-38.211
-5.441
26.684
55.9
80.121
97.265
105.832
104.973
93.589
71.461
40.149
1.647
-42.263
-91.203
-145.97
-205.141
-263.651
-313.094
-345.844
-359.446
-356.347
-342.866
-323.957
-300.885
-274.225
-244.639
-215.936
-193.84
-181.664
-179.708
-184.089
-189.53
-192.923
-193.491
-192.76
-192.425
-192.723
-192.753
-191.25
-187.783
-182.803
-177.199
-171.911
-167.304
-163.464
-160.572
-158.666
-157.703
-157.584
-157.961
-158.47
-158.955
-159.34
-159.599
-159.767
-159.836
-159.794
-159.698
-159.612
-159.581
-159.633
-159.762
-159.959
-160.241
-160.637
-161.189
-161.927
-162.858
-163.979
-165.284
-166.759
-168.396
-170.178
-172.078
-174.072
-176.138
-178.255
-180.409
-182.581
-184.747
-186.879
-188.947
-190.926
-192.794
-194.529
-196.114
-197.533
-198.771
-199.817
-200.663
-201.301
-201.721
-201.916
-201.879
-201.604
-201.088
-200.33
-199.33
-198.091
-196.616
-194.913
-192.989
-190.853
-188.516
-185.989
-183.283
-180.412
-177.39
-174.232
-170.952
-167.565
-164.09
-160.54
-156.934
-153.287
-149.614
-145.93
-142.25
-138.587
-134.952
-131.357
-127.811
-124.323
-120.9
-117.549
-114.273
-111.076
-107.959
-104.923
-101.966
-99.085
-96.276
-93.533
-90.849
-88.217
-85.626
-83.067
-80.529
-78.002
-75.473
-72.931
-70.362
-67.755
-65.097
-62.375
-59.578
-56.693
-53.709
-50.616
-47.405
-44.067
-40.595
-36.983
-33.226
-29.321
-25.266
-21.059
-16.701
-12.194
-7.542
-2.75
2.177
7.231
12.404
17.684
23.063
28.527
34.064
39.662
45.306
50.983
56.678
62.376
68.063
73.724
79.344
84.908
90.404
95.816
101.134
106.344
111.435
116.397
121.221
125.898
130.421
134.783
138.979
143.006
146.861
150.543
154.052
157.388
160.554
163.553
166.389
169.068
171.596
173.979
176.226
178.344
180.342
182.231
184.02
185.719
187.339
188.89
190.382
191.825
193.23
194.607
195.963
197.31
198.655
200.008
201.377
202.769
204.191
205.651
207.155
208.707
210.313
211.976
213.699
215.484
217.334
219.251
221.235
223.288
225.409
227.598
229.854
232.174
234.554
236.992
239.481
242.017
244.595
247.209
249.854
252.525
255.214
257.916
260.627
263.337
266.04
268.728
271.391
274.02
276.606
279.138
281.607
284.003
286.316
288.541
290.67
292.695
294.607
296.397
298.058
299.582
300.96
302.184
303.244
304.136
304.857
305.407
305.787
305.995
306.03
305.891
305.579
305.09
304.42
303.559
302.491
301.21
299.719
298.022
296.133
294.066
291.826
289.432
286.913
284.286
281.564
278.753
275.843
272.847
269.796
266.722
263.677
260.699
257.811
255.046
252.419
249.915
247.512
245.149
242.725
240.196
237.518
234.631
231.592
228.468
225.346
222.434
219.861
217.679
216.022
214.96
214.342
213.938
213.306
211.79
209.016
204.702
198.465
190.258
180.407
169.566
158.942
150.032
144.028
142.101
145.616
155.318
171.25
193.004
218.838
246.631
275.099
302.062
326.051
346.16
359.014
362.331
353.795
330.897
296.665
255.303
210.223
165.509
121.162
75.764
32.087
-6.099
-35.15
-50.597
-52.724
-44.626
-27.86
-6.295
15.971
35.293
46.883
49.049
43.643
34.737
26.988
22.855
22.228
23.129
23.713
23.35
22.272
21.273
20.672
20.196
19.473
18.133
16.103
13.543
10.622
7.512
4.371
1.324
-1.533
-4.143
-6.488
-8.561
-10.364
-11.905
-13.194
-14.249
-15.082
-15.698
-16.114
-16.357
-16.465
-16.486
-16.468
-16.456
-16.479
-16.554
-16.695
-16.909
-17.199
-17.564
-17.999
-18.495
-19.051
-19.666
-20.34
-21.07
-21.849
-22.668
-23.514
-24.377
-25.246
-26.111
-26.962
-27.792
-28.593
-29.361
-30.089
-30.774
-31.411
-31.99
-32.506
-32.948
-33.31
-33.585
-33.765
-33.843
-33.816
-33.677
-33.426
-33.06
-32.578
-31.979
-31.263
-30.431
-29.483
-28.422
-27.249
-25.969
-24.585
-23.102
-21.525
-19.86
-18.115
-16.296
-14.411
-12.469
-10.478
-8.447
-6.385
-4.3
-2.204
-0.104
1.989
4.065
6.115
8.129
10.099
12.015
13.87
15.655
17.364
18.99
20.528
21.972
23.318
24.562
25.701
26.733
27.654
28.463
29.159
29.742
30.21
30.566
30.808
30.939
30.959
30.871
30.676
30.377
29.975
29.475
28.878
28.187
27.406
26.538
25.585
24.552
23.441
22.255
20.997
19.671
18.278
16.821
15.303
13.725
12.089
10.398
8.651
6.852
5
3.098
1.147
-0.853
-2.899
-4.99
-7.125
-9.302
-11.519
-13.773
-16.063
-18.385
-20.738
-23.117
-25.521
-27.945
-30.387
-32.842
-35.306
-37.777
-40.248
-42.715
-45.174
-47.62
-50.046
-52.449
-54.821
-57.158
-59.454
-61.703
-63.899
-66.036
-68.107
-70.108
-72.033
-73.877
-75.635
-77.303
-78.877
-80.354
-81.734
-83.014
-84.194
-85.273
-86.252
-87.132
-87.915
-88.603
-89.199
-89.705
-90.127
-90.469
-90.737
-90.939
-91.083
-91.174
-91.223
-91.238
-91.23
-91.208
-91.183
-91.165
-91.165
-91.197
-91.274
-91.407
-91.611
-91.898
-92.279
-92.767
-93.373
-94.107
-94.977
-95.992
-97.159
-98.487
-99.983
-101.653
-103.503
-105.538
-107.765
-110.187
-112.806
-115.621
-118.631
-121.834
-125.225
-128.798
-132.541
-136.441
-140.488
-144.669
-148.972
-153.382
-157.881
-162.453
-167.082
-171.755
-176.457
-181.168
-185.865
-190.523
-195.128
-199.673
-204.157
-208.575
-212.916
-217.169
-221.326
-225.377
-229.301
-233.06
-236.593
-239.835
-242.743
-245.289
-247.462
-249.251
-250.635
-251.581
-252.057
-252.04
-251.514
-250.467
-248.884
-246.77
-244.171
-241.18
-237.965
-234.737
-231.622
-228.648
-225.755
-222.792
-219.646
-216.298
-212.684
-208.645
-204.158
-199.43
-194.945
-191.467
-189.573
-189.425
-191.001
-194.314
-199.277
-205.468
-211.931
-217.096
-219.467
-218.12
-212.473
-201.89
-185.657
-163.375
-135.275
-102.543
-66.746
-29.059
9.409
46.989
81.556
110.965
133.222
147.175
152.204
147.151
131.755
107.599
76.595
41.017
1.816
-42.637
-92.041
-143.058
-189.48
-222.531
-236.807
-232.15
-212.228
-184.577
-156.714
-132.909
-115.593
-104.236
-95.68
-88.662
-82.664
-77.424
-74.548
-73.895
-74.102
-74.809
-75.012
-74.123
-72.265
-69.072
-64.532
-59.252
-53.953
-49.147
-45.079
-41.74
-39.029
-37.005
-35.726
-35.036
-34.613
-34.198
-33.641
-32.887
-31.982
-30.916
-29.63
-28.12
-26.412
-24.534
-22.529
-20.419
-18.197
-15.878
-13.488
-11.056
-8.628
-6.231
-3.888
-1.616
0.571
2.661
4.656
6.561
8.376
10.103
11.739
13.267
14.715
16.115
17.409
18.563
19.535
20.255
20.805
21.294
21.677
21.926
22.166
22.457
22.951
23.854
24.95
25.998
26.994
27.876
28.489
28.778
28.478
27.284
25.456
23.268
20.769
18.104
15.357
12.53
9.867
7.627
5.621
3.678
1.74
-0.324
-2.501
-4.737
-7.145
-9.826
-12.689
-15.662
-18.691
-21.688
-24.67
-27.661
-30.619
-33.518
-36.354
-39.115
-41.803
-44.424
-46.954
-49.373
-51.668
-53.825
-55.841
-57.714
-59.439
-61.012
-62.431
-63.693
-64.801
-65.756
-66.561
-67.221
-67.742
-68.129
-68.392
-68.539
-68.58
-68.528
-68.391
-68.181
-67.908
-67.583
-67.22
-66.832
-66.431
-66.029
-65.639
-65.272
-64.941
-64.657
-64.428
-64.265
-64.176
-64.168
-64.248
-64.42
-64.69
-65.06
-65.531
-66.106
-66.782
-67.56
-68.435
-69.406
-70.466
-71.61
-72.832
-74.125
-75.482
-76.892
-78.347
-79.838
-81.355
-82.887
-84.424
-85.956
-87.473
-88.963
-90.418
-91.828
-93.182
-94.474
-95.693
-96.834
-97.89
-98.855
-99.724
-100.493
-101.161
-101.724
-102.183
-102.536
-102.785
-102.931
-102.975
-102.92
-102.771
-102.532
-102.207
-101.803
-101.325
-100.782
-100.181
-99.528
-98.831
-98.098
-97.336
-96.553
-95.756
-94.952
-94.148
-93.35
-92.565
-91.8
-91.058
-90.346
-89.665
-89.02
-88.413
-87.843
-87.311
-86.816
-86.357
-85.932
-85.54
-85.177
-84.842
-84.531
-84.238
-83.958
-83.686
-83.415
-83.137
-82.843
-82.526
-82.177
-81.79
-81.356
-80.869
-80.322
-79.709
-79.024
-78.262
-77.416
-76.478
-75.442
-74.3
-73.048
-71.678
-70.183
-68.558
-66.801
-64.909
-62.882
-60.718
-58.416
-55.973
-53.39
-50.667
-47.808
-44.81
-41.674
-38.404
-35.01
-31.507
-27.916
-24.251
-20.52
-16.733
-12.901
-9.028
-5.112
-1.136
2.93
7.105
11.396
15.8
20.302
24.895
29.582
34.366
39.242
44.209
49.257
54.392
59.643
64.995
70.396
75.757
80.932
85.798
90.288
94.327
97.838
100.835
103.37
105.553
107.631
109.778
112.091
114.721
117.744
121.045
124.432
127.595
130.079
131.605
131.957
130.786
127.974
123.836
119.041
114.584
111.598
111.19
114.589
123.125
137.905
158.854
184.559
214.076
246.627
281.594
319.237
356.538
387.942
408.6
413.203
400.506
373.972
337.868
297.582
255.961
213.324
169.568
124.837
83.404
50.034
28.349
21.077
25.74
39.162
58.955
81.75
106.213
130.95
154.078
174.603
191.199
203.007
209.73
211.401
209.06
204.019
197.34
190.101
182.862
175.871
169.596
164.226
159.576
155.395
151.303
146.853
141.933
136.56
130.59
124
116.848
109.191
101.264
93.372
85.658
78.217
71.177
64.582
58.47
52.869
47.686
42.782
38.066
33.462
28.933
24.494
20.147
15.894
11.762
7.777
3.962
0.336
-3.111
-6.397
-9.524
-12.482
-15.24
-17.752
-19.983
-21.9
-23.47
-24.674
-25.493
-25.917
-25.951
-25.605
-24.886
-23.801
-22.352
-20.537
-18.361
-15.831
-12.958
-9.754
-6.236
-2.417
1.681
6.038
10.633
15.446
20.459
25.655
31.013
36.515
42.139
47.866
53.674
59.543
65.449
71.37
77.285
83.174
89.016
94.791
100.48
106.065
111.529
116.855
122.027
127.03
131.85
136.471
140.883
145.072
149.027
152.74
156.199
159.399
162.332
164.994
167.381
169.489
171.318
172.866
174.132
175.118
175.825
176.253
176.404
176.282
175.89
175.23
174.308
173.127
171.692
170.006
168.075
165.903
163.494
160.855
157.99
154.904
151.604
148.095
144.384
140.476
136.38
132.1
127.644
123.018
118.23
113.285
108.191
102.954
97.582
92.083
86.463
80.731
74.894
68.962
62.944
56.849
50.688
44.472
38.211
31.917
25.604
19.284
12.971
6.678
0.421
-5.787
-11.93
-17.994
-23.963
-29.822
-35.557
-41.152
-46.592
-51.864
-56.951
-61.84
-66.518
-70.971
-75.185
-79.15
-82.852
-86.28
-89.424
-92.274
-94.82
-97.054
-98.97
-100.562
-101.825
-102.757
-103.356
-103.622
-103.555
-103.159
-102.436
-101.393
-100.036
-98.371
-96.407
-94.156
-91.626
-88.83
-85.78
-82.49
-78.974
-75.247
-71.323
-67.219
-62.948
-58.528
-53.973
-49.301
-44.527
-39.67
-34.745
-29.77
-24.762
-19.737
-14.713
-9.702
-4.721
0.218
5.104
9.924
14.669
19.329
23.895
28.359
32.714
36.953
41.071
45.064
48.927
52.659
56.259
59.728
63.07
66.287
69.382
72.359
75.225
77.983
80.639
83.201
85.674
88.066
90.389
92.654
94.872
97.057
99.219
101.363
103.5
105.633
107.762
109.889
112.005
114.102
116.186
118.26
120.335
122.431
124.559
126.73
128.969
131.287
133.695
136.2
138.794
141.479
144.268
147.169
150.215
153.434
156.832
160.421
164.188
168.07
172.012
175.927
179.694
183.244
186.49
189.336
191.8
193.934
195.843
197.757
199.817
202.078
204.693
207.721
211.043
214.494
217.589
219.638
220.207
218.921
215.445
209.817
202.367
193.736
185.245
178.483
174.88
175.941
182.864
196.259
216.246
242.242
272.842
306.185
339.993
371.502
398.084
417.363
427.295
426.404
413.532
388.648
353.346
309.852
260.71
206.923
147.499
83.334
17.571
-43.234
-89.417
-114.766
-117.146
-99.199
-68.27
-31.675
4.096
34.992
59.283
77.028
90.074
99.287
105.623
109.195
108.36
102.917
93.377
80.816
67.773
56.048
46.289
38.792
33.225
29.018
25.805
23.069
20.078
16.318
11.58
5.804
-0.884
-8.262
-16.158
-24.344
-32.498
-40.408
-47.969
-55.114
-61.829
-68.115
-73.974
-79.448
-84.643
-89.662
-94.576
-99.44
-104.281
-109.11
-113.942
-118.784
-123.621
-128.434
-133.21
-137.946
-142.661
-147.379
-152.1
-156.817
-161.506
-166.126
-170.645
-175.032
-179.251
-183.275
-187.085
-190.663
-194.008
-197.122
-200.005
-202.653
-205.059
-207.209
-209.095
-210.711
-212.054
-213.122
-213.914
-214.431
-214.677
-214.656
-214.371
-213.827
-213.022
-211.957
-210.63
-209.046
-207.205
-205.112
-202.771
-200.19
-197.375
-194.337
-191.085
-187.63
-183.982
-180.152
-176.153
-171.996
-167.695
-163.262
-158.712
-154.059
-149.318
-144.505
-139.636
-134.728
-129.796
-124.857
-119.929
-115.028
-110.169
-105.371
-100.647
-96.015
-91.489
-87.085
-82.817
-78.701
-74.751
-70.978
-67.397
-64.018
-60.851
-57.905
-55.188
-52.706
-50.467
-48.473
-46.728
-45.234
-43.992
-43
-42.258
-41.761
-41.505
-41.484
-41.689
-42.111
-42.742
-43.568
-44.578
-45.758
-47.093
-48.567
-50.164
-51.865
-53.654
-55.51
-57.415
-59.349
-61.291
-63.222
-65.122
-66.97
-68.747
-70.433
-72.01
-73.458
-74.762
-75.904
-76.87
-77.644
-78.214
-78.568
-78.695
-78.588
-78.238
-77.638
-76.786
-75.678
-74.313
-72.69
-70.814
-68.686
-66.313
-63.701
-60.859
-57.795
-54.521
-51.048
-47.388
-43.557
-39.568
-35.437
-31.181
-26.817
-22.363
-17.837
-13.257
-8.642
-4.01
0.621
5.235
9.813
14.341
18.803
23.183
27.469
31.648
35.707
39.635
43.422
47.061
50.544
53.865
57.021
60.008
62.825
65.471
67.945
70.247
72.379
74.343
76.14
77.776
79.254
80.581
81.763
82.808
83.725
84.522
85.207
85.789
86.275
86.673
86.989
87.231
87.405
87.518
87.575
87.584
87.551
87.48
87.378
87.25
87.104
86.946
86.78
86.611
86.443
86.278
86.118
85.965
85.821
85.683
85.552
85.427
85.307
85.196
85.088
84.974
84.836
84.652
84.399
84.06
83.623
83.082
82.442
81.719
80.936
80.126
79.318
78.528
77.76
76.999
76.241
75.491
74.781
74.171
73.709
73.429
73.342
73.436
73.666
73.966
74.209
74.204
73.827
73.05
71.964
70.807
69.785
68.984
68.484
68.38
68.601
68.85
68.588
66.96
63.246
57.141
48.483
37.18
23.499
8.137
-7.757
-22.466
-34.302
-42.112
-44.783
-41.18
-30.691
-13.279
10.361
38.632
69.758
102.171
133.789
162.131
185.033
200.498
207.193
204.657
192.384
170.603
141.157
106.14
67.294
25.063
-21.469
-71.43
-120.584
-161.612
-187.476
-195.496
-188.125
-172.26
-154.782
-139.394
-127.193
-116.928
-107.348
-98.586
-91.305
-86.382
-84.039
-83.617
-84.07
-84.307
-83.788
-82.486
-80.568
-78.332
-76.064
-74.003
-72.476
-71.843
-72.261
-73.737
-76.215
-79.547
-83.641
-88.479
-93.982
-100.043
-106.574
-113.439
-120.511
-127.729
-135.02
-142.311
-149.569
-156.737
-163.776
-170.687
-177.451
-184.049
-190.45
-196.587
-202.411
-207.911
-213.079
-217.948
-222.572
-226.976
-231.18
-235.207
-239.057
-242.735
-246.244
-249.562
-252.67
-255.561
-258.237
-260.718
-263.024
-265.154
-267.102
-268.85
-270.368
-271.637
-272.645
-273.373
-273.815
-273.97
-273.84
-273.439
-272.786
-271.894
-270.771
-269.424
-267.856
-266.073
-264.09
-261.919
-259.574
-257.071
-254.424
-251.648
-248.759
-245.769
-242.685
-239.516
-236.265
-232.936
-229.536
-226.07
-222.543
-218.962
-215.331
-211.657
-207.947
-204.204
-200.434
-196.64
-192.825
-188.992
-185.144
-181.284
-177.414
-173.537
-169.655
-165.771
-161.888
-158.009
-154.137
-150.274
-146.424
-142.589
-138.774
-134.981
-131.213
-127.476
-123.772
-120.106
-116.482
-112.902
-109.372
-105.895
-102.474
-99.111
-95.81
-92.573
-89.4
-86.292
-83.252
-80.279
-77.374
-74.536
-71.765
-69.061
-66.421
-63.844
-61.328
-58.87
-56.468
-54.116
-51.812
-49.551
-47.329
-45.14
-42.981
-40.845
-38.727
-36.623
-34.527
-32.435
-30.341
-28.242
-26.134
-24.013
-21.878
-19.725
-17.554
-15.363
-13.153
-10.923
-8.676
-6.412
-4.133
-1.843
0.456
2.758
5.061
7.359
9.647
11.918
14.168
16.389
18.576
20.722
22.82
24.865
26.848
28.764
30.607
32.37
34.049
35.638
37.132
38.528
39.823
41.015
42.103
43.086
43.966
44.743
45.42
45.999
46.486
46.884
47.199
47.438
47.608
47.717
47.773
47.787
47.766
47.722
47.663
47.6
47.54
47.495
47.473
47.483
47.532
47.631
47.786
48.005
48.296
48.663
49.112
49.647
50.27
50.983
51.787
52.683
53.666
54.732
55.876
57.091
58.373
59.715
61.108
62.541
64.005
65.491
66.991
68.495
69.993
71.467
72.906
74.301
75.647
76.943
78.185
79.365
80.477
81.512
82.465
83.331
84.098
84.744
85.246
85.581
85.737
85.723
85.543
85.192
84.658
83.922
82.966
81.801
80.445
78.914
77.225
75.385
73.397
71.314
69.236
67.226
65.266
63.23
60.961
58.421
55.722
52.985
50.217
47.404
44.629
42.263
40.82
40.585
41.499
43.229
45.48
48.105
50.977
53.543
54.903
54.276
51.166
45.669
38.118
28.587
17.044
3.984
-9.538
-22.133
-32.274
-39.084
-42.088
-40.45
-33.205
-19.907
-0.793
23.052
49.908
78.356
107.064
134.07
156.938
173.351
181.516
180.383
169.479
148.465
117.261
77.327
31.664
-16.807
-65.752
-114.69
-164.165
-212.459
-255.527
-287.233
-302.071
-299.309
-281.975
-256.413
-228.984
-201.762
-176.305
-153.381
-133.211
-120.024
-115.814
-119.246
-129.829
-142.618
-152.575
-158.437
-157.721
-151.284
-142.518
-133.171
-125.211
-118.836
-113.544
-109.111
-106.119
-106.214
-108.436
-111.602
-114.266
-114.144
-112.106
-109.317
-106.188
-103.663
-101.267
-98.345
-95.02
-91.213
-86.952
-82.371
-77.404
-72.04
-66.39
-60.542
-54.567
-48.535
-42.512
-36.548
-30.683
-24.93
-19.28
-13.735
-8.313
-3.05
2.013
6.856
11.477
15.889
20.106
24.136
27.993
31.691
35.25
38.681
41.986
45.153
48.171
51.037
53.751
56.323
58.762
61.076
63.27
65.354
67.334
69.22
71.021
72.743
74.39
75.971
77.495
78.976
80.426
81.856
83.278
84.699
86.131
87.581
89.058
90.565
92.105
93.683
95.299
96.956
98.654
100.392
102.168
103.98
105.825
107.697
109.592
111.504
113.424
115.346
117.26
119.158
121.029
122.865
124.655
126.388
128.056
129.65
131.16
132.576
133.892
135.099
136.19
137.16
138.004
138.718
139.301
139.752
140.073
140.267
140.338
140.291
140.134
139.876
139.525
139.094
138.592
138.035
137.434
136.806
136.166
135.529
134.913
134.333
133.806
133.349
132.978
132.709
132.557
132.537
132.662
132.947
133.402
134.039
134.867
135.894
137.126
138.568
140.22
142.085
144.159
146.438
148.917
151.587
154.438
157.459
160.635
163.952
167.392
170.937
174.567
178.262
181.999
185.755
189.508
193.233
196.907
200.506
204.006
207.383
210.616
213.683
216.561
219.23
221.671
223.865
225.796
227.449
228.81
229.869
230.616
231.045
231.152
230.935
230.395
229.534
228.355
226.867
225.078
222.998
220.641
218.02
215.151
212.053
208.744
205.246
201.579
197.766
193.829
189.792
185.679
181.513
177.315
173.109
168.918
164.763
160.668
156.653
152.737
148.939
145.277
141.766
138.419
135.247
132.256
129.451
126.837
124.415
122.186
120.148
118.297
116.631
115.15
113.846
112.715
111.744
110.921
110.234
109.671
109.214
108.846
108.55
108.308
108.107
107.935
107.774
107.606
107.41
107.156
106.821
106.388
105.839
105.159
104.341
103.38
102.288
101.084
99.785
98.408
96.969
95.478
93.96
92.428
90.893
89.376
87.887
86.425
84.99
83.565
82.11
80.594
78.98
77.199
75.187
72.865
70.137
66.921
63.154
58.774
53.707
47.942
41.527
34.589
27.386
20.19
13.207
6.685
0.9
-4.085
-8.333
-12.061
-15.841
-20.124
-25.121
-31.184
-38.537
-46.872
-55.659
-63.943
-70.079
-72.706
-70.767
-63.034
-48.535
-26.897
1.722
36.396
74.712
113.597
150.848
184.365
212.704
235.931
251.565
255.888
246.831
221.499
181.34
130.849
72.067
9.579
-52.807
-111.204
-157.171
-186.16
-197.409
-193.538
-183.11
-172.467
-164.403
-159.901
-156.772
-153.831
-151.586
-150.541
-151.57
-154.605
-158.702
-162.873
-166.119
-167.975
-168.447
-167.665
-165.965
-163.749
-161.356
-159.157
-157.492
-156.509
-156.26
-156.744
-157.867
-159.532
-161.642
-164.06
-166.672
-169.39
-172.108
-174.733
-177.179
-179.361
-181.25
-182.865
-184.221
-185.329
-186.2
-186.827
-187.227
-187.449
-187.54
-187.547
-187.517
-187.518
-187.655
-188.063
-188.881
-190.199
-192.058
-194.455
-197.387
-200.854
-204.852
-209.369
-214.36
-219.758
-225.497
-231.522
-237.753
-244.071
-250.317
-256.283
-261.764
-266.602
-270.671
-273.869
-276.104
-277.29
-277.36
-276.282
-274.053
-270.691
-266.217
-260.652
-254.05
-246.508
-238.165
-229.206
-219.802
-210.095
-200.218
-190.299
-180.454
-170.795
-161.406
-152.341
-143.637
-135.326
-127.438
-120
-113.016
-106.461
-100.29
-94.432
-88.833
-83.46
-78.276
-73.25
-68.357
-63.576
-58.906
-54.364
-49.967
-45.727
-41.657
-37.767
-34.077
-30.617
-27.419
-24.52
-21.945
-19.71
-17.827
-16.303
-15.14
-14.334
-13.874
-13.737
-13.902
-14.355
-15.075
-16.046
-17.248
-18.655
-20.244
-21.992
-23.875
-25.872
-27.961
-30.122
-32.337
-34.588
-36.86
-39.138
-41.405
-43.647
-45.846
-47.986
-50.051
-52.025
-53.893
-55.64
-57.254
-58.723
-60.035
-61.183
-62.158
-62.952
-63.56
-63.978
-64.2
-64.223
-64.045
-63.664
-63.079
-62.29
-61.298
-60.104
-58.71
-57.121
-55.34
-53.371
-51.221
-48.895
-46.399
-43.742
-40.931
-37.975
-34.884
-31.667
-28.336
-24.902
-21.377
-17.772
-14.098
-10.367
-6.588
-2.771
1.076
4.947
8.835
12.735
16.642
20.55
24.456
28.354
32.238
36.104
39.944
43.757
47.541
51.296
55.025
58.733
62.425
66.109
69.792
73.483
77.189
80.914
84.663
88.443
92.261
96.131
100.068
104.085
108.186
112.379
116.663
121.03
125.468
129.947
134.436
138.915
143.369
147.792
152.197
156.586
160.968
165.354
169.741
174.129
178.529
182.933
187.341
191.77
196.244
200.809
205.526
210.415
215.477
220.695
226.011
231.368
236.702
241.911
246.918
251.652
256.032
260.012
263.546
266.56
268.975
270.693
271.594
271.616
270.735
268.939
266.263
262.757
258.477
253.532
248.017
242.003
235.559
228.72
221.498
213.938
206.107
198.067
189.9
181.652
173.317
164.906
156.42
147.829
139.095
130.15
120.914
111.343
101.449
91.246
80.767
70.11
59.36
48.665
38.27
28.381
19.191
10.924
3.724
-2.436
-7.665
-12.25
-16.687
-21.346
-26.568
-32.796
-40.219
-48.642
-57.585
-66.197
-73.314
-77.932
-79.062
-75.494
-66.488
-51.993
-32.455
-8.977
16.787
43.041
67.626
87.789
101.129
105.923
100.862
85.439
59.853
24.868
-17.81
-65.457
-115.135
-163.956
-208.941
-247.534
-277.549
-297.4
-306.595
-305.586
-295.449
-277.814
-254.992
-229.604
-204.366
-181.79
-163.171
-148.744
-139.234
-135.279
-137.516
-147.295
-162.715
-179.542
-193.999
-201.381
-200.935
-196.097
-189.74
-185.329
-184.14
-184.233
-184.429
-183.885
-182.369
-180.969
-180.162
-179.801
-179.691
-179.389
-178.686
-177.677
-176.428
-174.978
-173.365
-171.608
-169.741
-167.832
-165.928
-164.054
-162.234
-160.478
-158.787
-157.17
-155.633
-154.18
-152.812
-151.518
-150.28
-149.09
-147.948
-146.855
-145.817
-144.827
-143.877
-142.961
-142.07
-141.195
-140.33
-139.462
-138.579
-137.673
-136.734
-135.759
-134.744
-133.682
-132.567
-131.388
-130.139
-128.81
-127.394
-125.884
-124.272
-122.554
-120.727
-118.788
-116.737
-114.575
-112.303
-109.921
-107.433
-104.841
-102.148
-99.357
-96.475
-93.505
-90.454
-87.329
-84.138
-80.889
-77.592
-74.254
-70.887
-67.499
-64.101
-60.702
-57.312
-53.942
-50.602
-47.302
-44.051
-40.859
-37.735
-34.687
-31.722
-28.847
-26.068
-23.389
-20.814
-18.345
-15.984
-13.731
-11.587
-9.55
-7.619
-5.791
-4.062
-2.429
-0.885
0.575
1.958
3.271
4.524
5.723
6.878
7.999
9.095
10.175
11.251
12.331
13.426
14.547
15.703
16.904
18.159
19.477
20.867
22.335
23.888
25.53
27.267
29.102
31.036
33.069
35.204
37.437
39.767
42.191
44.704
47.303
49.979
52.726
55.535
58.396
61.299
64.232
67.182
70.137
73.084
76.01
78.9
81.739
84.513
87.208
89.807
92.296
94.66
96.883
98.953
100.855
102.58
104.115
105.452
106.583
107.504
108.209
108.695
108.959
109
108.818
108.412
107.782
106.931
105.862
104.58
103.094
101.414
99.553
97.528
95.354
93.049
90.631
88.115
85.519
82.859
80.15
77.409
74.654
71.909
69.201
66.553
63.984
61.505
59.125
56.842
54.648
52.531
50.476
48.476
46.532
44.656
42.872
41.206
39.686
38.326
37.125
36.086
35.211
34.509
33.996
33.701
33.664
33.934
34.571
35.612
37.071
38.931
41.139
43.628
46.311
49.12
52.006
54.924
57.834
60.696
63.464
66.079
68.469
70.546
72.205
73.363
73.969
74.014
73.533
72.591
71.283
69.692
67.88
65.903
63.8
61.611
59.368
57.114
54.895
52.775
