Name
Date of Birth,"Dec 28, 2003"
Recorded Date,2024-09-19 10:03:10 -0500
Classification,Poor Recording
Symptoms,
Software Version,1.90
Device,"Watch4,4"
Sample Rate,512.711 hertz


Lead,Lead I
Unit,µV

0.652
-0.859
-2.312
-3.713
-5.062
-6.357
-7.597
-8.774
-9.886
-10.918
-11.84
-12.622
-13.234
-13.649
-13.864
-13.873
-13.664
-13.217
-12.51
-11.536
-10.313
-8.862
-7.185
-5.281
-3.164
-0.89
1.414
3.621
5.615
7.305
8.611
9.416
9.643
9.29
8.457
7.384
6.309
5.365
4.671
4.433
4.732
5.492
6.478
7.109
6.854
5.532
2.97
-1.101
-6.677
-13.377
-20.361
-26.112
-29.138
-28.52
-23.202
-11.817
6.725
33.04
66.222
103.625
142.855
182.614
223.223
265.616
308.119
345.534
369.194
370.445
345.489
297.072
234.469
167.521
101.787
37.229
-30.257
-101.644
-172.047
-231.336
-268.919
-280.443
-268.55
-241.836
-209.604
-177.342
-146.974
-117.699
-88.841
-61.581
-38.313
-21.387
-11.594
-8.329
-10.203
-15.312
-22.277
-29.866
-36.472
-41.114
-43.396
-43.174
-40.858
-37.095
-32.309
-27.098
-22.301
-18.358
-15.461
-13.673
-12.735
-12.381
-12.476
-12.782
-13.013
-13.038
-12.782
-12.229
-11.481
-10.604
-9.626
-8.606
-7.589
-6.611
-5.713
-4.918
-4.243
-3.701
-3.3
-3.041
-2.923
-2.933
-3.062
-3.292
-3.601
-3.971
-4.39
-4.846
-5.333
-5.843
-6.358
-6.864
-7.343
-7.78
-8.165
-8.485
-8.729
-8.889
-8.961
-8.944
-8.839
-8.647
-8.367
-7.999
-7.542
-7
-6.376
-5.676
-4.905
-4.07
-3.184
-2.256
-1.3
-0.329
0.643
1.603
2.537
3.431
4.271
5.042
5.73
6.321
6.802
7.157
7.375
7.442
7.346
7.077
6.625
5.981
5.137
4.088
2.83
1.359
-0.327
-2.227
-4.34
-6.662
-9.189
-11.913
-14.827
-17.92
-21.18
-24.594
-28.146
-31.822
-35.602
-39.47
-43.405
-47.388
-51.397
-55.412
-59.411
-63.372
-67.272
-71.09
-74.804
-78.393
-81.835
-85.11
-88.199
-91.084
-93.747
-96.171
-98.342
-100.247
-101.872
-103.208
-104.245
-104.977
-105.397
-105.501
-105.288
-104.756
-103.908
-102.746
-101.274
-99.5
-97.43
-95.075
-92.444
-89.55
-86.407
-83.029
-79.432
-75.632
-71.646
-67.493
-63.191
-58.758
-54.214
-49.578
-44.868
-40.104
-35.303
-30.485
-25.666
-20.864
-16.095
-11.376
-6.722
-2.146
2.338
6.719
10.985
15.126
19.134
23.001
26.72
30.286
33.695
36.944
40.031
42.956
45.719
48.322
50.769
53.064
55.212
57.218
59.089
60.832
62.454
63.963
65.366
66.671
67.889
69.027
70.095
71.103
72.059
72.973
73.856
74.716
75.563
76.403
77.245
78.097
78.966
79.86
80.784
81.745
82.748
83.799
84.902
86.062
87.28
88.557
89.893
91.288
92.741
94.25
95.813
97.428
99.092
100.804
102.561
104.357
106.189
108.051
109.935
111.836
113.743
115.647
117.538
119.408
121.248
123.051
124.809
126.512
128.155
129.73
131.231
132.653
133.986
135.221
136.349
137.364
138.261
139.035
139.677
140.179
140.538
140.753
140.822
140.742
140.502
140.085
139.476
138.671
137.665
136.453
135.034
133.41
131.598
129.637
127.571
125.432
123.239
120.992
118.699
116.367
114.007
111.639
109.269
106.898
104.555
102.267
100.044
97.878
95.706
93.403
90.867
87.982
84.626
80.782
76.478
71.812
66.995
62.176
57.431
52.904
48.745
44.892
41.178
37.208
32.391
26.526
19.694
11.909
3.167
-6.363
-16.284
-25.681
-33.205
-38.032
-39.797
-38.078
-32.339
-22.009
-6.737
13.058
36.198
61.748
88.989
116.887
143.925
168.084
187.253
199.74
204.41
200.23
186.228
162.511
130.788
92.637
49.603
2.773
-48.311
-100.503
-147.568
-183.818
-202.891
-204.172
-193.349
-174.616
-152.415
-128.399
-99.192
-66.066
-33.313
-5.312
10.953
14.168
8.813
-1.041
-10.211
-16.265
-20.818
-24.604
-27.921
-30.576
-31.192
-29.39
-25.755
-21.062
-16.295
-12.011
-8.401
-5.574
-3.521
-2.178
-1.392
-0.896
-0.398
0.262
1.137
2.222
3.462
4.832
6.317
7.873
9.441
10.974
12.44
13.824
15.123
16.334
17.448
18.461
19.368
20.176
20.896
21.545
22.137
22.68
23.177
23.63
24.044
24.427
24.785
25.129
25.469
25.816
26.184
26.584
27.029
27.527
28.084
28.706
29.395
30.156
30.995
31.919
32.933
34.044
35.256
36.576
38.007
39.551
41.209
42.981
44.863
46.855
48.951
51.15
53.445
55.833
58.306
60.86
63.485
66.175
68.92
71.711
74.535
77.381
80.238
83.091
85.928
88.736
91.501
94.208
96.844
99.394
101.844
104.181
106.389
108.455
110.366
112.107
113.667
115.034
116.195
117.142
117.866
118.357
118.608
118.614
118.369
117.869
117.111
116.094
114.815
113.277
111.48
109.427
107.124
104.576
101.79
98.773
95.536
92.088
88.44
84.605
80.595
76.424
72.106
67.657
63.092
58.426
53.676
48.858
43.988
39.084
34.16
29.233
24.319
19.432
14.586
9.796
5.074
0.433
-4.115
-8.56
-12.893
-17.105
-21.188
-25.136
-28.945
-32.61
-36.13
-39.501
-42.725
-45.802
-48.734
-51.523
-54.173
-56.689
-59.077
-61.342
-63.491
-65.533
-67.474
-69.323
-71.088
-72.778
-74.401
-75.965
-77.477
-78.945
-80.378
-81.781
-83.161
-84.524
-85.874
-87.217
-88.556
-89.893
-91.229
-92.566
-93.904
-95.241
-96.575
-97.905
-99.227
-100.537
-101.83
-103.102
-104.347
-105.558
-106.728
-107.85
-108.918
-109.922
-110.856
-111.713
-112.486
-113.168
-113.755
-114.241
-114.622
-114.895
-115.056
-115.102
-115.032
-114.846
-114.546
-114.132
-113.609
-112.982
-112.257
-111.441
-110.544
-109.573
-108.539
-107.452
-106.322
-105.161
-103.982
-102.796
-101.619
-100.463
-99.345
-98.278
-97.28
-96.364
-95.547
-94.84
-94.257
-93.808
-93.501
-93.346
-93.349
-93.517
-93.852
-94.357
-95.034
-95.882
-96.899
-98.083
-99.427
-100.923
-102.56
-104.328
-106.217
-108.216
-110.314
-112.499
-114.762
-117.093
-119.493
-121.959
-124.478
-127.036
-129.607
-132.159
-134.663
-137.086
-139.389
-141.538
-143.499
-145.244
-146.761
-148.04
-149.071
-149.831
-150.274
-150.356
-150.049
-149.346
-148.273
-146.883
-145.238
-143.418
-141.518
-139.651
-137.933
-136.4
-135.003
-133.616
-132.031
-130.116
-127.823
-125.035
-121.668
-117.825
-113.71
-109.72
-106.46
-104.286
-103.416
-104.175
-106.603
-110.346
-114.798
-118.87
-121.233
-120.888
-116.733
-107.494
-92.439
-71.354
-44.688
-13.764
19.977
55.167
89.735
121.124
146.936
164.901
173.64
172.626
161.118
138.684
106.067
64.913
17.69
-32.526
-83.267
-132.206
-176.256
-212.603
-239.23
-254.96
-260.012
-255.426
-241.973
-220.979
-194.799
-165.931
-136.985
-110.246
-86.823
-67.374
-52.735
-43.111
-37.965
-36.395
-36.931
-38.09
-39.136
-39.561
-38.776
-36.593
-33.167
-28.87
-24.48
-20.832
-18.299
-17.039
-17.185
-18.644
-21.218
-24.708
-28.742
-32.914
-37.036
-41.007
-44.737
-48.219
-51.41
-54.222
-56.649
-58.71
-60.396
-61.739
-62.771
-63.536
-64.142
-64.686
-65.222
-65.793
-66.412
-67.071
-67.778
-68.532
-69.318
-70.151
-71.039
-71.987
-73.011
-74.104
-75.245
-76.403
-77.526
-78.567
-79.493
-80.276
-80.902
-81.364
-81.658
-81.786
-81.761
-81.586
-81.261
-80.786
-80.156
-79.369
-78.431
-77.347
-76.127
-74.784
-73.328
-71.771
-70.124
-68.395
-66.593
-64.721
-62.785
-60.788
-58.737
-56.637
-54.496
-52.323
-50.126
-47.913
-45.693
-43.475
-41.265
-39.071
-36.898
-34.753
-32.639
-30.563
-28.528
-26.54
-24.602
-22.719
-20.894
-19.132
-17.433
-15.801
-14.238
-12.744
-11.32
-9.965
-8.678
-7.459
-6.305
-5.214
-4.185
-3.213
-2.297
-1.432
-0.614
0.162
0.9
1.607
2.288
2.95
3.598
4.239
4.879
5.523
6.179
6.851
7.547
8.272
9.033
9.835
10.685
11.587
12.547
13.57
14.658
15.817
17.048
18.354
19.734
21.191
22.724
24.33
26.009
27.757
29.57
31.443
33.371
35.347
37.363
39.411
41.481
43.564
45.65
47.728
49.786
51.812
53.794
55.719
57.576
59.349
61.027
62.596
64.043
65.355
66.52
67.525
68.361
69.015
69.48
69.747
69.808
69.657
69.291
68.706
67.899
66.871
65.623
64.157
62.478
60.591
58.505
56.227
53.77
51.145
48.364
45.443
42.397
39.242
35.995
32.675
29.3
25.891
22.468
19.051
15.663
12.325
9.059
5.886
2.829
-0.092
-2.858
-5.448
-7.845
-10.032
-11.993
-13.714
-15.18
-16.38
-17.303
-17.942
-18.288
-18.337
-18.085
-17.532
-16.679
-15.53
-14.087
-12.358
-10.349
-8.069
-5.527
-2.733
0.298
3.554
7.02
10.677
14.507
18.489
22.6
26.818
31.12
35.484
39.886
44.307
48.724
53.117
57.468
61.759
65.972
70.091
74.098
77.977
81.714
85.294
88.705
91.936
94.973
97.803
100.419
102.814
104.978
106.904
108.57
109.958
111.058
111.861
112.365
112.572
112.486
112.122
111.514
110.705
109.742
108.672
107.524
106.323
105.088
103.84
102.617
101.452
100.364
99.373
98.487
97.7
96.993
96.312
95.553
94.598
93.296
91.459
88.993
85.9
82.275
78.332
74.234
70.051
65.917
62.048
58.52
55.185
51.586
46.962
40.79
32.946
23.429
12.217
-0.586
-14.491
-28.35
-40.364
-48.87
-52.773
-51.307
-43.667
-29.007
-6.926
22.102
56.597
94.738
134.952
175.68
214.817
249.716
277.836
297.056
306.007
303.841
289.771
264.179
229.183
187.387
141.236
91.569
37.996
-17.74
-71.308
-115.804
-144.253
-153.633
-144.583
-121.629
-91.3
-59.787
-33.59
-16.85
-10.438
-12.377
-17.326
-20.615
-20.097
-15.893
-10.568
-5.974
-2.463
0.279
3.324
7.08
11.172
15.231
18.827
21.712
23.942
25.614
26.841
27.824
28.753
29.765
30.953
32.367
34.019
35.92
38.083
40.488
43.104
45.901
48.856
51.953
55.173
58.48
61.82
65.133
68.354
71.424
74.3
76.953
79.358
81.497
83.357
84.931
86.218
87.226
87.951
88.388
88.534
88.388
87.955
87.246
86.272
85.044
83.576
81.88
79.971
77.862
75.563
73.089
70.45
67.659
64.729
61.678
58.524
55.285
51.98
48.629
45.25
41.865
38.49
35.144
31.844
28.604
25.441
22.369
19.401
16.552
13.833
11.255
8.829
6.563
4.465
2.54
0.793
-0.773
-2.157
-3.362
-4.388
-5.239
-5.921
-6.441
-6.806
-7.027
-7.113
-7.078
-6.933
-6.694
-6.374
-5.99
-5.558
-5.094
-4.615
-4.137
-3.677
-3.252
-2.877
-2.568
-2.339
-2.206
-2.182
-2.279
-2.51
-2.887
-3.418
-4.113
-4.978
-6.02
-7.243
-8.649
-10.24
-12.016
-13.973
-16.109
-18.417
-20.891
-23.522
-26.301
-29.215
-32.252
-35.399
-38.641
-41.961
-45.343
-48.77
-52.225
-55.688
-59.143
-62.57
-65.951
-69.269
-72.505
-75.642
-78.665
-81.556
-84.301
-86.885
-89.296
-91.52
-93.548
-95.37
-96.977
-98.364
-99.524
-100.456
-101.157
-101.626
-101.866
-101.878
-101.668
-101.24
-100.603
-99.763
-98.731
-97.517
-96.133
-94.589
-92.9
-91.077
-89.134
-87.085
-84.942
-82.718
-80.427
-78.08
-75.69
-73.267
-70.822
-68.365
-65.904
-63.446
-60.999
-58.567
-56.154
-53.763
-51.397
-49.054
-46.734
-44.434
-42.152
-39.883
-37.62
-35.358
-33.087
-30.799
-28.484
-26.132
-23.731
-21.27
-18.739
-16.125
-13.418
-10.608
-7.684
-4.637
-1.457
1.864
5.333
8.957
12.74
16.686
20.799
25.078
29.522
34.129
38.895
43.814
48.879
54.081
59.41
64.854
70.4
76.034
81.74
87.5
93.292
99.095
104.885
110.639
116.333
121.942
127.441
132.805
138.014
143.046
147.88
152.494
156.865
160.972
164.795
168.313
171.507
174.359
176.855
178.982
180.73
182.096
183.073
183.657
183.839
183.608
182.959
181.89
180.407
178.516
176.229
173.564
170.547
167.21
163.587
159.711
155.613
151.32
146.858
142.251
137.529
132.728
127.882
123.012
118.126
113.22
108.292
103.347
98.387
93.386
88.305
83.095
77.701
72.088
66.238
60.126
53.688
46.895
39.801
32.544
25.398
18.647
12.476
7.069
2.672
-0.602
-2.839
-4.34
-5.728
-7.647
-10.491
-14.629
-20.443
-27.947
-36.668
-45.667
-53.46
-58.463
-59.42
-55.045
-43.964
-25.369
0.735
33.547
71.382
112.086
153.511
193.03
227.455
253.947
270.286
274.833
266.899
246.547
214.185
172.01
123.262
70.345
16.258
-37.358
-89.287
-135.039
-171.33
-195.373
-204.803
-202.791
-192.487
-176.505
-158.942
-140.729
-122.733
-106.521
-92.198
-80.646
-72.861
-69.099
-69.159
-72.093
-76.458
-80.973
-84.996
-88.295
-90.589
-91.47
-90.79
-88.723
-85.835
-82.926
-80.392
-78.311
-76.724
-75.675
-75.194
-75.244
-75.613
-75.939
-75.992
-75.698
-75.042
-74.061
-72.765
-71.139
-69.202
-67.023
-64.665
-62.168
-59.562
-56.853
-54.061
-51.232
-48.4
-45.596
-42.84
-40.139
-37.496
-34.91
-32.382
-29.906
-27.481
-25.106
-22.777
-20.494
-18.253
-16.051
-13.882
-11.738
-9.607
-7.48
-5.35
-3.21
-1.056
1.115
3.306
5.519
7.758
10.026
12.329
14.674
17.066
19.511
22.013
24.578
27.21
29.91
32.68
35.522
38.436
41.422
44.48
47.61
50.81
54.077
57.408
60.801
64.249
67.747
71.289
74.866
78.471
82.093
85.724
89.352
92.967
96.556
100.107
103.608
107.044
110.404
113.673
116.837
119.884
122.799
125.57
128.184
130.63
132.894
134.967
136.838
138.498
139.939
141.152
142.132
142.872
143.367
143.615
143.612
143.358
142.851
142.093
141.087
139.835
138.342
136.613
134.656
132.479
130.09
127.499
124.717
121.754
118.624
115.339
111.91
108.352
104.676
100.897
97.027
93.078
89.065
84.999
80.891
76.753
72.597
68.432
64.268
60.114
55.977
51.865
47.786
43.743
39.744
35.792
31.89
28.042
24.25
20.515
16.839
13.221
9.661
6.158
2.711
-0.681
-4.021
-7.309
-10.548
-13.739
-16.883
-19.981
-23.033
-26.04
-29
-31.912
-34.775
-37.585
-40.339
-43.034
-45.664
-48.224
-50.707
-53.107
-55.416
-57.626
-59.727
-61.713
-63.572
-65.297
-66.878
-68.305
-69.57
-70.662
-71.572
-72.292
-72.813
-73.127
-73.224
-73.098
-72.744
-72.155
-71.327
-70.257
-68.944
-67.387
-65.587
-63.547
-61.269
-58.76
-56.026
-53.074
-49.914
-46.557
-43.015
-39.301
-35.432
-31.423
-27.291
-23.055
-18.733
-14.345
-9.91
-5.447
-0.977
3.479
7.901
12.268
16.557
20.746
24.812
28.731
32.482
36.043
39.395
42.52
45.401
48.025
50.381
52.458
54.244
55.73
56.908
57.771
58.313
58.529
58.417
57.979
57.216
56.134
54.739
53.036
51.029
48.719
46.102
43.177
39.953
36.437
32.643
28.59
24.3
19.805
15.149
10.37
5.505
0.594
-4.339
-9.261
-14.143
-18.955
-23.657
-28.219
-32.638
-36.916
-41.064
-45.104
-49.051
-52.946
-56.888
-60.967
-65.28
-69.922
-74.946
-80.433
-86.502
-93.183
-100.443
-108.173
-116.113
-124.027
-131.79
-139.176
-145.902
-151.882
-157.141
-161.934
-166.834
-172.212
-178.131
-184.757
-192.281
-200.498
-208.899
-216.479
-221.717
-223.493
-221.16
-213.904
-200.832
-181.532
-156.058
-125.258
-90.806
-54.099
-16.345
20.598
54.329
82.489
102.734
113.3
113.24
101.315
77.108
41.996
-2
-52.268
-107.59
-168.975
-235.434
-303.34
-365.114
-409.931
-432.118
-431.713
-414.13
-389.46
-364.102
-340.637
-319.427
-298.31
-276.85
-255.998
-236.664
-220.242
-207.257
-197.348
-189.816
-183.419
-177.082
-170.426
-163.362
-155.944
-148.186
-139.886
-131.123
-122.428
-114.384
-107.317
-101.252
-95.956
-91.253
-87.155
-83.595
-80.358
-77.14
-73.665
-69.826
-65.648
-61.164
-56.355
-51.169
-45.547
-39.516
-33.158
-26.56
-19.832
-13.053
-6.279
0.405
6.926
13.233
19.284
25.075
30.629
35.95
41.038
45.886
50.462
54.753
58.764
62.511
66.03
69.355
72.511
75.532
78.452
81.303
84.111
86.89
89.635
92.346
95.024
97.676
100.316
102.96
105.623
108.31
111.02
113.752
116.505
119.266
122.016
124.723
127.343
129.849
132.229
134.476
136.597
138.593
140.461
142.204
143.821
145.316
146.701
147.975
149.131
150.188
151.173
152.135
153.152
154.262
155.47
156.772
158.136
159.523
160.9
162.209
163.382
164.368
165.106
165.547
165.663
165.375
164.593
163.202
161.046
158.031
154.107
149.234
143.413
136.664
129.002
120.485
111.189
101.152
90.43
79.08
67.144
54.735
41.986
29.06
16.165
3.465
-8.922
-20.878
-32.32
-43.196
-53.436
-63.007
-71.892
-80.02
-87.344
-93.834
-99.448
-104.213
-108.185
-111.44
-114.107
-116.294
-118.073
-119.521
-120.685
-121.593
-122.291
-122.811
-123.174
-123.448
-123.684
-123.924
-124.216
-124.568
-124.967
-125.388
-125.769
-126.056
-126.22
-126.236
-126.099
-125.816
-125.387
-124.818
-124.123
-123.297
-122.336
-121.241
-120.006
-118.641
-117.168
-115.611
-114.013
-112.415
-110.841
-109.313
-107.843
-106.432
-105.085
-103.798
-102.561
-101.366
-100.21
-99.084
-97.987
-96.911
-95.844
-94.772
-93.678
-92.542
-91.349
-90.084
-88.733
-87.284
-85.726
-84.05
-82.253
-80.33
-78.273
-76.078
-73.737
-71.246
-68.6
-65.797
-62.836
-59.716
-56.438
-53.008
-49.432
-45.719
-41.878
-37.92
-33.858
-29.706
-25.48
-21.197
-16.874
-12.529
-8.182
-3.852
0.439
4.67
8.821
12.872
16.8
20.585
24.208
27.651
30.896
33.927
36.727
39.282
41.577
43.596
45.328
46.762
47.887
48.696
49.187
49.358
49.213
48.759
48.001
46.949
45.611
43.996
42.115
39.977
37.591
34.969
32.124
29.068
25.816
22.378
18.764
14.984
11.049
6.97
2.762
-1.557
-5.972
-10.456
-14.978
-19.5
-23.978
-28.375
-32.658
-36.788
-40.72
-44.4
-47.78
-50.837
-53.566
-55.974
-58.081
-59.903
-61.481
-62.911
-64.246
-65.48
-66.559
-67.33
-67.658
-67.521
-66.859
-65.565
-63.752
-61.709
-59.905
-59.093
-59.87
-62.506
-67.325
-74.606
-84.114
-95.221
-106.81
-117.228
-125.102
-129.456
-129.161
-123.15
-110.966
-92.727
-69.382
-42.623
-14.03
14.846
41.96
64.966
81.716
90.477
90.223
80.516
61.092
32.148
-5.174
-48.821
-96.373
-145.355
-193.105
-236.942
-274.27
-302.702
-321.557
-331.263
-331.614
-323.241
-306.365
-281.6
-253.29
-225.28
-201.205
-184.451
-173.695
-167.758
-165.355
-163.788
-163.204
-163.376
-163.515
-164.016
-163.889
-162.024
-158.403
-153.077
-146.66
-140.203
-134.152
-128.576
-123.586
-119.227
-115.477
-112.287
-109.438
-106.538
-103.365
-99.874
-96.043
-91.915
-87.517
-82.836
-77.906
-72.807
-67.597
-62.31
-56.978
-51.607
-46.223
-40.879
-35.612
-30.45
-25.413
-20.501
-15.715
-11.054
-6.516
-2.091
2.224
6.433
10.537
14.535
18.427
22.216
25.91
29.516
33.044
36.502
39.895
43.227
46.501
49.719
52.88
55.983
59.028
62.017
64.954
67.842
70.684
73.482
76.239
78.958
81.639
84.284
86.893
89.465
92
94.498
96.961
99.388
101.781
104.139
106.464
108.756
111.016
113.243
115.439
117.603
119.735
121.834
123.901
125.935
127.935
129.902
131.834
133.732
135.593
137.419
139.207
140.957
142.668
144.339
145.971
147.561
149.109
150.615
152.079
153.499
154.875
156.207
157.493
158.732
159.924
161.067
162.159
163.198
164.182
165.11
165.978
166.785
167.527
168.203
168.81
169.344
169.803
170.184
170.484
170.699
170.825
170.86
170.8
170.642
170.38
170.012
169.534
168.942
168.232
167.399
166.44
165.351
164.128
162.768
161.267
159.621
157.83
155.889
153.798
151.554
149.157
146.606
143.901
141.042
138.03
134.866
131.553
128.094
124.492
120.751
116.877
112.876
108.754
104.519
100.179
95.743
91.222
86.625
81.964
77.252
72.502
67.729
62.947
58.172
53.42
48.709
44.054
39.473
34.984
30.605
26.352
22.244
18.299
14.534
10.967
7.616
4.497
1.627
-0.979
-3.306
-5.342
-7.073
-8.49
-9.582
-10.342
-10.762
-10.838
-10.565
-9.94
-8.964
-7.637
-5.961
-3.944
-1.592
1.085
4.076
7.367
10.943
14.788
18.885
23.213
27.754
32.485
37.383
42.423
47.578
52.821
58.121
63.448
68.77
74.057
79.277
84.402
89.404
94.256
98.933
103.41
107.664
111.673
115.414
118.865
122.003
124.811
127.274
129.378
131.113
132.469
133.439
134.024
134.222
134.033
133.449
132.46
131.06
129.258
127.061
124.485
121.545
118.258
114.656
110.79
106.707
102.459
98.08
93.586
89.005
84.365
79.701
75.06
70.459
65.899
61.401
56.983
52.665
48.493
44.446
40.444
36.42
32.274
27.94
23.409
18.637
13.515
8
2.259
-3.457
-8.887
-13.706
-18.287
-22.939
-26.964
-30.285
-31.85
-30.674
-28.984
-28.155
-30.238
-37.901
-48.793
-60.535
-70.869
-76.244
-76.949
-73.632
-65.543
-52.531
-33.622
-8.325
22.198
56.277
92.296
128.603
163.125
193.407
217.14
232.377
237.829
232.821
216.819
190.293
155.415
114.965
71.119
23.841
-28.184
-84.722
-142.077
-191.087
-221.928
-228.918
-211.753
-179.35
-143.478
-112.607
-92.373
-80.487
-71.198
-61.668
-49.906
-37.83
-29.508
-26.155
-27.872
-33.513
-40.613
-47.72
-54.074
-58.883
-61.88
-63.066
-62.545
-60.755
-58.285
-55.7
-53.375
-51.592
-50.51
-50.098
-50.281
-50.906
-51.715
-52.452
-52.975
-53.213
-53.151
-52.84
-52.301
-51.552
-50.646
-49.633
-48.555
-47.446
-46.319
-45.185
-44.059
-42.954
-41.882
-40.851
-39.863
-38.909
-37.984
-37.076
-36.181
-35.299
-34.428
-33.569
-32.719
-31.875
-31.033
-30.185
-29.325
-28.445
-27.538
-26.599
-25.623
-24.608
-23.553
-22.461
-21.331
-20.161
-18.947
-17.688
-16.38
-15.019
-13.605
-12.135
-10.607
-9.021
-7.378
-5.68
-3.929
-2.125
-0.272
1.631
3.58
5.573
7.607
9.678
11.783
13.917
16.075
18.252
20.44
22.633
24.825
27.009
29.178
31.323
33.438
35.514
37.543
39.516
41.425
43.261
45.015
46.679
48.242
49.698
51.037
52.252
53.335
54.279
55.076
55.721
56.206
56.527
56.678
56.654
56.452
56.067
55.497
54.74
53.796
52.662
51.341
49.832
48.137
46.259
44.201
41.966
39.559
36.986
34.251
31.363
28.328
25.153
21.848
18.421
14.882
11.241
7.507
3.692
-0.193
-4.137
-8.129
-12.157
-16.208
-20.271
-24.333
-28.383
-32.408
-36.395
-40.335
-44.213
-48.02
-51.744
-55.374
-58.899
-62.31
-65.596
-68.748
-71.755
-74.611
-77.305
-79.831
-82.179
-84.342
-86.314
-88.088
-89.657
-91.016
-92.16
-93.084
-93.783
-94.254
-94.494
-94.5
-94.269
-93.801
-93.094
-92.148
-90.965
-89.545
-87.89
-86.003
-83.887
-81.546
-78.985
-76.208
-73.221
-70.031
-66.645
-63.07
-59.315
-55.391
-51.306
-47.074
-42.706
-38.216
-33.618
-28.929
-24.162
-19.335
-14.465
-9.571
-4.67
0.217
5.073
9.878
14.612
19.254
23.786
28.189
32.444
36.533
40.438
44.142
47.629
50.883
53.891
56.639
59.115
61.307
63.206
64.803
66.091
67.066
67.726
68.074
68.115
67.859
67.315
66.496
65.415
64.087
62.528
60.752
58.773
56.605
54.267
51.779
49.165
46.447
43.646
40.781
37.868
34.928
31.983
29.052
26.154
23.312
20.558
17.932
15.49
13.279
11.341
9.702
8.393
7.441
6.878
6.737
7.022
7.725
8.834
10.326
12.179
14.371
16.836
19.456
22.17
24.964
27.901
31.152
34.82
38.943
43.631
48.954
54.802
60.939
66.894
71.964
75.664
77.643
77.498
75.166
71.041
65.8
60.588
56.83
55.661
58.219
65.758
78.962
97.853
121.894
149.822
180.037
210.926
240.334
265.642
284.533
295.029
295.608
285.389
263.796
231.211
189.715
141.98
90.197
34.987
-23.968
-85.278
-144.434
-193.419
-224.726
-235.155
-226.645
-206.495
-182.541
-159.775
-140.264
-123.107
-107.285
-93.206
-82.27
-76.162
-75.181
-78.299
-83.838
-89.818
-95.116
-99.175
-101.284
-101.107
-98.731
-94.463
-89.132
-83.792
-78.977
-74.964
-72.033
-70.225
-69.515
-69.849
-70.876
-72.115
-73.313
-74.344
-75.152
-75.806
-76.316
-76.656
-76.881
-77.073
-77.289
-77.58
-77.954
-78.388
-78.893
-79.505
-80.264
-81.227
-82.423
-83.858
-85.533
-87.442
-89.576
-91.93
-94.481
-97.198
-100.054
-103.025
-106.091
-109.236
-112.435
-115.658
-118.872
-122.044
-125.146
-128.152
-131.039
-133.784
-136.366
-138.766
-140.969
-142.964
-144.738
-146.277
-147.571
-148.609
-149.383
-149.888
-150.121
-150.079
-149.763
-149.178
-148.328
-147.223
-145.871
-144.284
-142.475
-140.461
-138.257
-135.882
-133.354
-130.695
-127.926
-125.069
-122.148
-119.187
-116.209
-113.238
-110.297
-107.412
-104.604
-101.895
-99.308
-96.862
-94.577
-92.471
-90.561
-88.86
-87.384
-86.143
-85.147
-84.404
-83.921
-83.701
-83.745
-84.053
-84.622
-85.447
-86.523
-87.84
-89.388
-91.156
-93.129
-95.293
-97.632
-100.127
-102.762
-105.515
-108.366
-111.295
-114.28
-117.299
-120.332
-123.355
-126.348
-129.291
-132.161
-134.941
-137.61
-140.15
-142.545
-144.778
-146.834
-148.7
-150.363
-151.813
-153.04
-154.037
-154.798
-155.317
-155.592
-155.622
-155.405
-154.943
-154.238
-153.295
-152.117
-150.712
-149.086
-147.246
-145.203
-142.966
-140.545
-137.951
-135.195
-132.289
-129.244
-126.072
-122.785
-119.393
-115.909
-112.342
-108.705
-105.008
-101.26
-97.473
-93.655
-89.816
-85.963
-82.104
-78.245
-74.393
-70.553
-66.73
-62.927
-59.148
-55.397
-51.678
-47.992
-44.342
-40.73
-37.158
-33.627
-30.137
-26.691
-23.288
-19.928
-16.615
-13.348
-10.131
-6.967
-3.86
-0.812
2.173
5.091
7.939
10.713
13.41
16.026
18.558
21
23.346
25.59
27.727
29.747
31.644
33.409
35.036
36.517
37.849
39.027
40.045
40.901
41.59
42.113
42.466
42.646
42.652
42.482
42.134
41.612
40.918
40.054
39.027
37.839
36.499
35.016
33.394
31.637
29.744
27.709
25.532
23.216
20.765
18.186
15.498
12.723
9.901
7.08
4.295
1.573
-1.063
-3.607
-6.044
-8.36
-10.545
-12.571
-14.411
-16.038
-17.398
-18.463
-19.244
-19.778
-20.16
-20.516
-20.923
-21.473
-22.267
-23.298
-24.516
-25.805
-26.93
-27.734
-28.156
-28.08
-27.459
-26.44
-25.233
-24.201
-23.847
-24.404
-25.984
-28.784
-32.776
-37.622
-42.771
-47.273
-49.952
-49.888
-46.216
-38.006
-24.503
-5.252
19.579
49.241
82.008
115.34
147.566
177.28
203.773
227.871
247.497
258.437
256.891
238.391
203.874
159.451
110.92
64.983
25.155
-8.765
-35.795
-55.25
-66.366
-67.426
-58.351
-40.569
-15.922
12.732
42.345
70.618
95.57
115.648
129.916
138.038
140.299
137.837
132.259
125.073
117.701
111.195
106.299
103.544
103.08
104.647
107.685
111.515
115.429
118.996
121.987
124.252
125.774
126.59
126.807
126.643
126.372
126.167
126.093
126.161
126.334
126.596
126.956
127.392
127.848
128.272
128.626
128.886
129.064
129.174
129.216
129.191
129.1
128.945
128.744
128.514
128.261
127.984
127.677
127.333
126.952
126.541
126.103
125.642
125.16
124.66
124.148
123.63
123.111
122.592
122.07
121.543
121.009
120.468
119.923
119.374
118.822
118.27
117.718
117.169
116.624
116.085
115.549
115.015
114.483
113.952
113.42
112.887
112.353
111.818
111.281
110.743
110.203
109.661
109.116
108.568
108.014
107.453
106.885
106.306
105.717
105.115
104.501
103.873
103.231
102.573
101.899
101.208
100.501
99.775
99.031
98.267
97.485
96.683
95.863
95.024
94.167
93.292
92.399
91.489
90.561
89.616
88.654
87.675
86.679
85.665
84.633
83.584
82.517
81.431
80.326
79.201
78.055
76.886
75.693
74.473
73.225
71.945
70.631
69.28
67.888
66.451
64.967
63.43
61.838
60.185
58.47
56.686
54.832
52.903
50.897
48.811
46.643
44.39
42.051
39.627
37.116
34.52
31.84
29.078
26.237
23.321
20.335
17.284
14.175
11.016
7.814
4.58
1.325
-1.941
-5.203
-8.45
-11.666
-14.837
-17.948
-20.982
-23.924
-26.756
-29.463
-32.027
-34.431
-36.659
-38.693
-40.517
-42.116
-43.475
-44.578
-45.415
-45.973
-46.242
-46.212
-45.877
-45.23
-44.266
-42.982
-41.378
-39.452
-37.208
-34.65
-31.784
-28.62
-25.17
-21.445
-17.461
-13.235
-8.785
-4.13
0.707
5.705
10.839
16.085
21.417
26.805
32.22
37.631
43.007
48.315
53.524
58.602
63.518
68.245
72.755
77.022
81.025
84.74
88.145
91.219
93.943
96.295
98.261
99.826
100.979
101.713
102.024
101.911
101.377
100.428
99.066
97.294
95.108
92.507
89.502
86.106
82.337
78.222
73.786
69.063
64.107
58.967
53.692
48.33
42.905
37.441
31.969
26.528
21.169
15.937
10.844
5.895
1.105
-3.51
-7.928
-12.158
-16.27
-20.353
-24.483
-28.723
-33.085
-37.588
-42.307
-47.275
-52.462
-57.748
-62.871
-67.569
-71.702
-75.126
-77.625
-79.08
-79.494
-79.083
-78.407
-78.053
-78.385
-79.738
-82.496
-86.76
-92.201
-98.041
-102.906
-105.302
-104.071
-97.953
-85.479
-65.609
-37.988
-3.584
35.227
76.026
117.003
157.586
197.643
235.212
266.022
283.139
279.897
253.842
207.77
149.998
88.519
27.85
-30.441
-88.645
-145.586
-195.635
-233.987
-255.009
-257.12
-245.109
-222.762
-194.396
-165.403
-137.061
-111.607
-91.937
-77.067
-67.368
-62.386
-59.726
-59.8
-62.346
-66.469
-72.22
-77.983
-82.198
-84.532
-84.708
-83.017
-80.173
-76.496
-72.322
-68.284
-64.813
-62.108
-60.289
-59.248
-58.754
-58.678
-58.838
-58.963
-58.912
-58.619
-58.049
-57.261
-56.307
-55.207
-54.015
-52.795
-51.577
-50.395
-49.266
-48.194
-47.206
-46.325
-45.562
-44.929
-44.422
-44.032
-43.755
-43.578
-43.484
-43.461
-43.492
-43.564
-43.669
-43.795
-43.927
-44.048
-44.136
-44.171
-44.134
-44.004
-43.758
-43.379
-42.85
-42.159
-41.299
-40.256
-39.023
-37.595
-35.963
-34.123
-32.068
-29.786
-27.268
-24.517
-21.543
-18.364
-15.007
-11.494
-7.845
-4.096
-0.274
3.602
7.52
11.486
15.511
19.585
23.689
27.786
31.841
35.845
39.795
43.688
47.537
51.348
55.125
58.909
62.725
66.561
70.385
74.128
77.704
81.075
84.235
87.173
89.88
92.316
94.422
96.156
97.459
98.266
98.502
98.05
96.812
94.758
91.899
88.283
83.98
79
73.309
66.911
59.823
52.096
43.806
35.018
25.808
16.298
6.646
-2.966
-12.378
-21.492
-30.267
-38.667
-46.666
-54.193
-61.132
-67.421
-73.024
-77.921
-82.116
-85.617
-88.444
-90.68
-92.465
-93.929
-95.183
-96.295
-97.288
-98.199
-99.073
-99.972
-100.979
-102.146
-103.502
-105.079
-106.898
-108.967
-111.283
-113.793
-116.4
-119.03
-121.63
-124.162
-126.618
-128.976
-131.207
-133.284
-135.182
-136.882
-138.372
-139.635
-140.646
-141.398
-141.89
-142.138
-142.182
-142.045
-141.734
-141.257
-140.61
-139.79
-138.8
-137.632
-136.273
-134.714
-132.948
-130.972
-128.789
-126.397
-123.79
-120.963
-117.909
-114.627
-111.118
-107.389
-103.444
-99.293
-94.95
-90.429
-85.749
-80.929
-75.986
-70.938
-65.803
-60.601
-55.352
-50.079
-44.802
-39.545
-34.331
-29.184
-24.127
-19.179
-14.362
-9.694
-5.192
-0.874
3.246
7.152
10.83
14.267
17.448
20.364
23.008
25.376
27.468
29.283
30.823
32.097
33.112
33.875
34.392
34.661
34.681
34.458
34.003
33.327
32.447
31.383
30.166
28.841
27.458
26.057
24.672
23.321
22.021
20.793
19.665
18.665
17.827
17.177
16.742
16.564
16.682
17.105
17.802
18.692
19.66
20.621
21.52
22.299
22.894
23.299
23.569
23.827
24.29
25.119
26.387
28.206
30.645
33.602
36.901
40.232
43.09
45.146
46.175
45.834
44.063
41.207
37.844
34.98
33.876
35.512
40.941
51.415
67.696
89.998
117.962
150.435
185.942
222.97
259.46
292.911
320.861
341.038
351.74
351.756
340.76
319.597
289.617
252.888
210.206
160.526
104.917
46.508
-7.996
-48.38
-68.909
-68.745
-51.796
-26.907
-0.19
25.461
49.209
72.962
97.038
119.987
139.948
154.521
162.853
165.594
163.767
158.807
151.872
143.872
136.112
129.782
125.516
123.589
123.864
125.856
129.189
133.434
137.893
142.038
145.591
148.385
150.474
152.033
153.165
154.035
154.897
155.877
157.024
158.35
159.781
161.25
162.725
164.139
165.42
166.521
167.404
168.057
168.498
168.729
168.747
168.552
168.141
167.522
166.71
165.709
164.52
163.142
161.575
159.825
157.9
155.803
153.543
151.128
148.566
145.866
143.04
140.095
137.043
133.891
130.646
127.317
123.912
120.441
116.915
113.346
109.743
106.115
102.474
98.827
95.181
91.543
87.916
84.305
80.714
77.146
73.602
70.086
66.598
63.14
59.711
56.311
52.937
49.588
46.259
42.948
39.649
36.358
33.068
29.775
26.472
23.154
19.815
16.447
13.045
9.603
6.116
2.577
-1.018
-4.674
-8.394
-12.182
-16.039
-19.967
-23.965
-28.032
-32.168
-36.368
-40.628
-44.944
-49.309
-53.715
-58.154
-62.617
-67.093
-71.57
-76.036
-80.478
-84.882
-89.233
-93.516
-97.716
-101.818
-105.804
-109.66
-113.369
-116.916
-120.286
-123.465
-126.439
-129.194
-131.719
-134.002
-136.033
-137.804
-139.308
-140.537
-141.488
-142.159
-142.548
-142.656
-142.487
-142.044
-141.334
-140.366
-139.15
-137.697
-136.021
-134.137
-132.063
-129.815
-127.414
-124.88
-122.235
-119.501
-116.703
-113.863
-111.005
-108.153
-105.332
-102.566
-99.876
-97.287
-94.82
-92.497
-90.338
-88.361
-86.585
-85.026
-83.697
-82.613
-81.784
-81.218
-80.924
-80.907
-81.169
-81.712
-82.536
-83.637
-85.011
-86.651
-88.55
-90.696
-93.078
-95.683
-98.495
-101.498
-104.677
-108.013
-111.489
-115.086
-118.786
-122.571
-126.423
-130.324
-134.258
-138.206
-142.154
-146.087
-149.992
-153.855
-157.664
-161.41
-165.084
-168.679
-172.189
-175.61
-178.938
-182.172
-185.311
-188.358
-191.315
-194.183
-196.968
-199.675
-202.31
-204.883
-207.401
-209.873
-212.307
-214.711
-217.092
-219.455
-221.802
-224.135
-226.454
-228.759
-231.051
-233.33
-235.596
-237.85
-240.092
-242.323
-244.538
-246.734
-248.904
-251.043
-253.147
-255.21
-257.23
-259.199
-261.11
-262.953
-264.717
-266.385
-267.933
-269.328
-270.524
-271.483
-272.178
-272.577
-272.65
-272.36
-271.66
-270.523
-268.946
-266.932
-264.492
-261.637
-258.362
-254.708
-250.769
-246.594
-242.199
-237.527
-232.417
-226.759
-220.552
-213.742
-206.233
-198.098
-189.527
-180.928
-172.982
-166.207
-160.844
-157.156
-155.375
-155.306
-156.424
-157.8
-158.029
-156.001
-150.983
-142.05
-128.308
-109.459
-85.658
-57.737
-27.201
4.789
37.148
68.013
95.295
117.191
131.934
138.474
136.301
124.442
102.972
73.822
39.132
0.733
-40.655
-85.821
-133.96
-180.45
-218.522
-241.945
-246.978
-235.724
-214.304
-188.265
-163.833
-144.03
-128.733
-118.528
-111.081
-104.779
-99.218
-92.624
-85.567
-78.329
-70.537
-62.912
-55.029
-46.542
-37.836
-29.027
-20.552
-12.993
-6.455
-0.889
3.775
7.734
11.124
14.03
16.586
18.947
21.255
23.614
26.084
28.679
31.401
34.27
37.305
40.515
43.879
47.359
50.918
54.523
58.159
61.804
65.424
68.984
72.438
75.758
78.932
81.957
84.831
87.556
90.132
92.57
94.891
97.115
99.257
101.333
103.348
105.314
107.247
109.161
111.068
112.977
114.895
116.825
118.772
120.738
122.725
124.728
126.743
128.766
130.794
132.822
134.847
136.865
138.867
140.85
142.808
144.733
146.617
148.453
150.231
151.943
153.582
155.138
156.605
157.974
159.238
160.39
161.424
162.333
163.111
163.753
164.254
164.609
164.816
164.871
164.772
164.518
164.107
163.54
162.818
161.941
160.91
159.729
158.4
156.927
155.312
153.561
151.678
149.667
147.534
145.285
142.924
140.459
137.895
135.237
132.491
129.663
126.76
123.786
120.746
117.648
114.495
111.294
108.049
104.766
101.449
98.103
94.733
91.342
87.936
84.517
81.091
77.661
74.23
70.803
67.382
63.97
60.572
57.191
53.829
50.491
47.18
43.898
40.651
37.442
34.275
31.154
28.084
25.07
22.116
19.226
16.406
13.662
10.997
8.417
5.928
3.534
1.241
-0.945
-3.02
-4.978
-6.814
-8.523
-10.099
-11.538
-12.834
-13.983
-14.98
-15.82
-16.499
-17.011
-17.352
-17.518
-17.505
-17.31
-16.928
-16.357
-15.595
-14.639
-13.488
-12.141
-10.597
-8.855
-6.915
-4.778
-2.444
0.084
2.806
5.719
8.821
12.106
15.572
19.213
23.023
26.998
31.131
35.415
39.843
44.408
49.101
53.914
58.835
63.855
68.96
74.138
79.376
84.662
89.98
95.316
100.656
105.986
111.29
116.555
121.763
126.9
131.948
136.892
141.714
146.396
150.922
155.273
159.436
163.395
167.14
170.657
173.936
176.969
179.746
182.259
184.499
186.458
188.128
189.504
190.582
191.362
191.847
192.041
191.95
191.581
190.945
190.047
188.889
187.472
185.793
183.854
181.661
179.228
176.569
173.708
170.678
167.516
164.257
160.935
157.57
154.177
150.766
147.353
143.96
140.619
137.362
134.227
131.249
128.462
125.896
123.551
121.381
119.329
117.322
115.293
113.212
111.047
108.731
106.266
103.723
101.206
98.933
97.094
95.761
95.078
95.222
96.16
97.763
99.695
101.234
101.751
100.829
97.921
92.675
85.325
76.392
66.907
58.673
53.39
52.609
58.099
71.11
91.86
119.958
154.235
192.442
232.057
270.231
303.484
328.705
343.772
347.075
337.666
315.746
282.222
239.596
191.458
140.634
90.223
41.989
-2.604
-39.31
-66.221
-81.821
-83.971
-76.351
-61.268
-40.441
-20.118
-2.195
11.601
18.401
21.153
21.581
20.721
21.382
22.996
25.026
27.803
30.522
33.488
37.083
40.921
44.818
48.391
51.189
53.14
54.322
54.837
54.846
54.511
53.949
53.29
52.682
52.215
51.946
51.915
52.125
52.575
53.282
54.245
55.454
56.895
58.534
60.337
62.278
64.32
66.422
68.544
70.634
72.653
74.578
76.388
78.073
79.623
81.03
82.287
83.397
84.362
85.18
85.852
86.373
86.741
86.959
87.03
86.959
86.747
86.394
85.897
85.257
84.47
83.535
82.448
81.204
79.802
78.24
76.52
74.644
72.615
70.435
68.107
65.636
63.026
60.281
57.404
54.401
51.275
48.032
44.678
41.221
37.665
34.019
30.289
26.484
22.612
18.68
14.698
10.671
6.61
2.522
-1.584
-5.699
-9.814
-13.921
-18.011
-22.075
-26.104
-30.089
-34.023
-37.897
-41.702
-45.432
-49.077
-52.631
-56.084
-59.429
-62.658
-65.762
-68.734
-71.565
-74.249
-76.777
-79.142
-81.337
-83.357
-85.193
-86.842
-88.296
-89.551
-90.602
-91.445
-92.076
-92.492
-92.691
-92.67
-92.429
-91.966
-91.283
-90.379
-89.258
-87.921
-86.372
-84.615
-82.655
-80.5
-78.156
-75.631
-72.936
-70.081
-67.078
-63.939
-60.679
-57.311
-53.852
-50.319
-46.727
-43.095
-39.442
-35.785
-32.145
-28.541
-24.992
-21.518
-18.139
-14.876
-11.747
-8.771
-5.969
-3.357
-0.954
1.223
3.158
4.836
6.243
7.366
8.193
8.713
8.919
8.804
8.361
7.587
6.481
5.043
3.274
1.18
-1.235
-3.963
-6.993
-10.316
-13.917
-17.783
-21.898
-26.244
-30.803
-35.555
-40.48
-45.554
-50.756
-56.06
-61.443
-66.879
-72.343
-77.81
-83.252
-88.646
-93.964
-99.182
-104.275
-109.218
-113.987
-118.559
-122.914
-127.029
-130.885
-134.466
-137.754
-140.735
-143.398
-145.731
-147.727
-149.377
-150.677
-151.624
-152.216
-152.454
-152.339
-151.877
-151.071
-149.931
-148.466
-146.689
-144.611
-142.249
-139.618
-136.734
-133.619
-130.289
-126.768
-123.076
-119.235
-115.27
-111.205
-107.066
-102.88
-98.675
-94.478
-90.315
-86.212
-82.196
-78.289
-74.513
-70.887
-67.43
-64.158
-61.088
-58.237
-55.621
-53.255
-51.152
-49.324
-47.778
-46.521
-45.556
-44.887
-44.509
-44.42
-44.618
-45.104
-45.887
-46.971
-48.35
-50.015
-51.95
-54.133
-56.544
-59.155
-61.924
-64.81
-67.773
-70.774
-73.796
-76.829
-79.854
-82.842
-85.754
-88.551
-91.226
-93.795
-96.263
-98.64
-100.931
-103.143
-105.344
-107.628
-110.076
-112.774
-115.767
-119.052
-122.669
-126.705
-131.157
-135.974
-140.989
-145.867
-150.365
-154.356
-157.638
-160.06
-161.638
-162.46
-162.879
-163.553
-164.955
-167.441
-171.413
-176.88
-183.373
-190.155
-196.056
-199.637
-199.743
-195.182
-184.664
-167.564
-144.063
-115.027
-82.024
-46.947
-11.641
21.595
49.939
70.902
82.639
83.936
74.167
53.12
20.951
-20.771
-68.953
-120.523
-173.03
-225.915
-279.55
-332.718
-382.46
-422.302
-445.295
-448.193
-430.921
-400.673
-368.279
-341.433
-325.842
-320.354
-318.898
-318.082
-315.435
-311.163
-308.235
-307.249
-307.73
-309.09
-309.79
-309.035
-306.595
-302.313
-296.55
-289.981
-283.398
-277.295
-271.84
-267.122
-263.188
-260.09
-257.852
-256.288
-255.009
-253.717
-252.259
-250.572
-248.679
-246.589
-244.262
-241.697
-238.948
-236.074
-233.127
-230.134
-227.087
-223.983
-220.845
-217.707
-214.617
-211.625
-208.758
-206.027
-203.438
-200.993
-198.692
-196.534
-194.506
-192.585
-190.75
-188.985
-187.28
-185.626
-184.007
-182.403
-180.79
-179.149
-177.463
-175.72
-173.909
-172.017
-170.034
-167.953
-165.771
-163.484
-161.09
-158.585
-155.964
-153.225
-150.367
-147.388
-144.291
-141.075
-137.742
-134.297
-130.742
-127.084
-123.326
-119.474
-115.534
-111.511
-107.412
-103.242
-99.008
-94.717
-90.374
-85.985
-81.557
-77.094
-72.601
-68.082
-63.54
-58.978
-54.399
-49.803
-45.192
-40.566
-35.924
-31.267
-26.594
-21.902
-17.189
-12.453
-7.692
-2.904
1.915
6.768
11.656
16.582
21.547
26.554
31.601
36.69
41.82
46.99
52.199
57.442
62.717
68.02
73.345
78.686
84.034
89.383
94.721
100.039
105.326
110.569
115.755
120.872
125.906
130.841
135.664
140.359
144.912
149.306
153.526
157.559
161.389
165.003
168.39
171.537
174.436
177.077
179.453
181.56
183.391
184.944
186.216
187.208
187.921
188.357
188.52
188.418
188.056
187.447
186.6
185.529
184.249
182.774
181.121
179.309
177.356
175.283
173.11
170.859
168.552
166.213
163.865
161.53
159.232
156.991
154.828
152.762
150.81
148.987
147.306
145.782
144.426
143.248
142.26
141.47
140.885
140.515
140.365
140.44
140.74
141.262
142
142.949
144.099
145.44
146.958
148.637
150.463
152.425
154.511
156.703
158.981
161.317
163.69
166.086
168.49
170.894
173.292
175.677
178.058
180.458
182.895
185.391
187.947
190.549
193.185
195.845
198.521
201.208
203.884
206.504
209.036
211.454
213.727
215.831
217.709
219.271
220.449
221.189
221.467
221.308
220.732
219.762
218.447
216.845
215.052
213.201
211.396
209.715
208.241
207.05
206.252
206.003
206.424
207.601
209.589
212.392
216.012
220.445
225.642
231.518
237.952
244.777
251.864
259.124
266.458
273.778
280.965
287.866
294.36
300.362
305.797
310.62
314.787
318.249
321.004
323.084
324.543
325.464
325.9
325.869
325.395
324.497
323.202
321.555
319.58
317.277
314.655
311.72
308.481
304.956
301.14
297.011
292.54
287.697
282.466
276.85
270.856
264.494
257.781
250.738
243.4
235.813
228.015
220.04
211.923
203.693
195.389
187.054
178.726
170.444
162.243
154.153
146.204
138.424
130.831
123.439
116.26
109.305
102.594
96.148
89.992
84.153
78.661
73.552
68.865
64.641
60.916
57.733
55.144
53.191
51.902
51.293
51.346
52.035
53.338
55.187
57.464
60.09
63.031
66.323
70.1
74.452
79.369
84.859
90.973
97.654
104.642
111.395
117.079
120.973
122.683
121.955
118.541
112.366
103.797
93.841
84.16
76.393
71.719
71.109
75.621
86.21
103.328
126.735
155.156
186.942
220.831
254.7
285.915
312.644
332.483
344.525
348.938
342.888
324.867
294.059
249.593
195.446
134.079
66.76
-2.3
-69.605
-128.191
-170.406
-194.639
-201.897
-196.898
-184.866
-166.243
-142.613
-116.781
-91.874
-74.079
-65.507
-63.445
-65.552
-67.978
-69.115
-71.132
-74.677
-79.791
-86.198
-92.023
-96.081
-98.247
-98.586
-97.581
-95.976
-94.356
-93.018
-92.196
-92.053
-92.55
-93.629
-95.182
-96.906
-98.489
-99.768
-100.652
-101.12
-101.224
-100.986
-100.418
-99.588
-98.571
-97.422
-96.183
-94.877
-93.516
-92.137
-90.793
-89.525
-88.364
-87.329
-86.426
-85.657
-85.025
-84.53
-84.162
-83.915
-83.784
-83.767
-83.865
-84.077
-84.396
-84.813
-85.316
-85.895
-86.539
-87.239
-87.988
-88.779
-89.607
-90.47
-91.363
-92.284
-93.226
-94.182
-95.145
-96.109
-97.067
-98.014
-98.944
-99.851
-100.732
-101.584
-102.404
-103.19
-103.938
-104.646
-105.311
-105.932
-106.506
-107.032
-107.508
-107.932
-108.304
-108.625
-108.893
-109.108
-109.272
-109.383
-109.443
-109.452
-109.411
-109.319
-109.177
-108.986
-108.746
-108.458
-108.122
-107.74
-107.31
-106.835
-106.315
-105.749
-105.139
-104.485
-103.786
-103.044
-102.258
-101.429
-100.557
-99.644
-98.689
-97.693
-96.658
-95.584
-94.472
-93.324
-92.14
-90.921
-89.669
-88.385
-87.072
-85.73
-84.362
-82.97
-81.556
-80.123
-78.674
-77.21
-75.734
-74.25
-72.759
-71.265
-69.769
-68.275
-66.785
-65.301
-63.826
-62.362
-60.91
-59.473
-58.052
-56.649
-55.265
-53.902
-52.56
-51.241
-49.946
-48.676
-47.432
-46.214
-45.023
-43.86
-42.725
-41.62
-40.543
-39.496
-38.478
-37.489
-36.53
-35.6
-34.7
-33.83
-32.99
-32.179
-31.398
-30.648
-29.928
-29.239
-28.581
-27.954
-27.359
-26.795
-26.264
-25.766
-25.3
-24.868
-24.469
-24.102
-23.768
-23.465
-23.194
-22.951
-22.737
-22.55
-22.387
-22.246
-22.126
-22.023
-21.935
-21.858
-21.789
-21.724
-21.658
-21.588
-21.509
-21.415
-21.301
-21.163
-20.994
-20.79
-20.543
-20.25
-19.904
-19.498
-19.028
-18.488
-17.872
-17.175
-16.392
-15.52
-14.554
-13.492
-12.331
-11.068
-9.702
-8.233
-6.659
-4.981
-3.199
-1.315
0.668
2.748
4.92
7.181
9.524
11.943
14.431
16.982
19.586
22.236
24.923
27.637
30.368
33.105
35.838
38.553
41.238
43.882
46.471
48.993
51.435
53.785
56.032
58.162
60.165
62.03
63.746
65.299
66.68
67.878
68.882
69.683
70.271
70.638
70.776
70.679
70.339
69.752
68.912
67.815
66.455
64.827
62.926
60.749
58.294
55.557
52.54
49.244
45.672
41.831
37.727
33.368
28.761
23.913
18.831
13.522
7.993
2.254
-3.683
-9.806
-16.101
-22.552
-29.137
-35.838
-42.638
-49.525
-56.496
-63.543
-70.652
-77.803
-84.974
-92.139
-99.271
-106.34
-113.299
-120.105
-126.718
-133.102
-139.244
-145.134
-150.757
-156.085
-161.081
-165.708
-169.963
-173.862
-177.41
-180.616
-183.483
-186.022
-188.304
-190.426
-192.471
-194.52
-196.615
-198.755
-200.987
-203.421
-206.078
-208.911
-211.758
-214.278
-216.214
-217.462
-217.835
-217.102
-215.241
-212.328
-208.726
-205.268
-202.604
-201.125
-201.298
-203.343
-206.915
-211.402
-215.689
-217.953
-216.644
-210.398
-197.686
-177.557
-149.947
-115.39
-75.282
-31.923
12.391
54.971
92.571
122.364
141.947
149.42
143.902
125.164
93.917
52.687
3.913
-50.265
-108.06
-169.255
-230.663
-286.245
-330.374
-357.292
-366.465
-362.748
-350.618
-334.887
-318.16
-299.962
-281.085
-262.419
-244.847
-230.132
-219.154
-212.259
-209.261
-209.043
-210.224
-211.592
-212.42
-212.457
-211.468
-209.072
-205.155
-199.932
-194.001
-188.175
-182.882
-178.21
-174.21
-170.923
-168.373
-166.523
-165.108
-163.722
-162.127
-160.239
-158.05
-155.611
-152.927
-149.974
-146.794
-143.471
-140.08
-136.676
-133.279
-129.893
-126.544
-123.279
-120.155
-117.22
-114.496
-111.992
-109.71
-107.646
-105.798
-104.157
-102.704
-101.42
-100.286
-99.288
-98.411
-97.644
-96.964
-96.347
-95.768
-95.2
-94.621
-94.012
-93.353
-92.626
-91.816
-90.908
-89.891
-88.752
-87.478
-86.055
-84.473
-82.719
-80.786
-78.666
-76.354
-73.846
-71.142
-68.243
-65.153
-61.876
-58.418
-54.787
-50.992
-47.044
-42.955
-38.738
-34.408
-29.98
-25.472
-20.899
-16.281
-11.635
-6.98
-2.334
2.284
6.855
11.363
15.788
20.117
24.331
28.418
32.362
36.152
39.778
43.229
46.498
49.579
52.467
55.16
57.655
59.956
62.063
63.98
65.714
67.272
68.662
69.893
70.977
71.925
72.749
73.464
74.082
74.618
75.086
75.502
75.88
76.234
76.58
76.932
77.302
77.703
78.148
78.647
79.211
79.848
80.565
81.369
82.265
83.257
84.346
85.535
86.821
88.204
89.679
91.244
92.891
94.613
96.404
98.253
100.152
102.09
104.057
106.04
108.03
110.014
111.98
113.918
115.815
117.661
119.444
121.154
122.781
124.317
125.753
127.083
128.3
129.399
130.377
131.231
131.959
132.561
133.039
133.394
133.63
133.753
133.767
133.68
133.501
133.239
132.904
132.507
132.059
131.573
131.061
130.535
130.009
129.493
129.003
128.549
128.145
127.801
127.531
127.345
127.253
127.264
127.388
127.632
128.003
128.505
129.143
129.921
130.841
131.903
133.107
134.452
135.935
137.551
139.296
141.162
143.141
145.224
147.402
149.664
151.998
154.393
156.837
159.316
161.819
164.33
166.837
169.325
171.781
174.19
176.539
178.813
181
183.086
185.059
186.909
188.624
190.193
191.609
192.861
193.941
194.843
195.56
196.086
196.417
196.549
196.48
196.208
195.734
195.057
194.179
193.101
191.823
190.349
188.681
186.821
184.773
182.541
180.131
177.548
174.799
171.89
168.829
165.623
162.277
158.8
155.198
151.476
147.643
143.703
139.664
135.534
131.32
127.03
122.672
118.255
113.788
109.283
104.75
100.201
95.645
91.095
86.562
82.057
77.593
73.179
68.824
64.54
60.335
56.22
52.207
48.299
44.498
40.802
37.199
33.681
30.242
26.881
23.605
20.426
17.368
14.463
11.745
9.245
6.989
4.991
3.248
1.773
0.575
-0.317
-0.845
-0.966
-0.655
0.097
1.263
2.783
4.583
6.537
8.462
10.24
11.823
13.271
14.777
16.503
18.536
20.961
23.882
27.26
30.839
34.125
36.356
36.861
35.304
31.47
25.147
16.449
5.967
-5.258
-15.596
-23.365
-27.394
-26.521
-19.453
-5.398
15.82
43.613
76.374
112.226
149.543
186.138
219.267
246.428
265.428
274.839
274.103
262.697
240.184
207.858
168.592
125.172
79.934
32.969
-16.756
-67.337
-114.016
-150.326
-170.645
-173.484
-161.414
-138.711
-109.103
-76.086
-43.109
-14.067
6.509
16.449
16.925
11.815
6.034
2.758
2.459
3.278
3.326
1.984
-0.126
-1.407
-1.101
0.466
2.582
4.355
5.429
5.942
5.962
5.44
4.401
2.896
1.12
-0.582
-2.036
-3.213
-4.1
-4.722
-5.085
-5.156
-4.948
-4.523
-3.923
-3.183
-2.33
-1.368
-0.322
0.788
1.951
3.157
4.407
5.715
7.09
8.549
10.11
11.778
13.556
15.447
17.451
19.573
21.815
24.178
26.666
29.279
32.019
34.883
37.869
40.967
44.166
47.451
50.808
54.22
57.674
61.155
64.649
68.14
71.614
75.054
78.444
81.767
85.003
88.132
91.135
93.991
96.682
99.188
101.493
103.578
105.428
107.028
108.363
109.419
110.185
110.647
110.796
110.621
110.113
109.267
108.075
106.536
104.645
102.403
99.809
96.866
93.578
89.949
85.985
81.694
77.085
72.168
66.955
61.459
55.695
49.678
43.427
36.959
30.292
23.446
16.441
9.299
2.038
-5.318
-12.749
-20.232
-27.746
-35.268
-42.777
-50.251
-57.668
-65.008
-72.25
-79.376
-86.365
-93.201
-99.866
-106.344
-112.621
-118.682
-124.514
-130.107
-135.449
-140.533
-145.351
-149.897
-154.166
-158.156
-161.864
-165.29
-168.435
-171.3
-173.888
-176.204
-178.252
-180.039
-181.572
-182.86
-183.911
-184.737
-185.347
-185.753
-185.966
-186
-185.868
-185.581
-185.155
-184.601
-183.934
-183.168
-182.314
-181.387
-180.399
-179.363
-178.289
-177.188
-176.072
-174.95
-173.83
-172.721
-171.63
-170.565
-169.531
-168.534
-167.579
-166.669
-165.808
-164.998
-164.241
-163.538
-162.89
-162.298
-161.759
-161.274
-160.84
-160.456
-160.12
-159.827
-159.574
-159.358
-159.175
-159.019
-158.888
-158.775
-158.677
-158.589
-158.506
-158.425
-158.341
-158.25
-158.148
-158.032
-157.896
-157.739
-157.556
-157.345
-157.101
-156.822
-156.505
-156.148
-155.747
-155.299
-154.802
-154.253
-153.648
-152.984
-152.259
-151.468
-150.609
-149.68
-148.677
-147.599
-146.444
-145.21
-143.895
-142.498
-141.017
-139.45
-137.796
-136.054
-134.222
-132.299
-130.284
-128.177
-125.979
-123.689
-121.31
-118.84
-116.283
-113.639
-110.911
-108.101
-105.211
-102.247
-99.211
-96.11
-92.95
-89.74
-86.489
-83.205
-79.9
-76.582
-73.26
-69.944
-66.64
-63.356
-60.098
-56.872
-53.686
-50.544
-47.458
-44.438
-41.493
-38.632
-35.864
-33.193
-30.626
-28.169
-25.822
-23.586
-21.463
-19.457
-17.579
-15.842
-14.251
-12.804
-11.495
-10.306
-9.221
-8.221
-7.27
-6.332
-5.373
-4.358
-3.276
-2.128
-0.905
0.404
1.82
3.369
5.049
6.843
8.738
10.706
12.716
14.733
16.672
18.455
20.011
21.256
22.155
22.682
22.806
22.545
21.9
20.85
19.482
17.938
16.388
15.14
14.47
14.5
15.421
17.407
20.441
24.554
29.583
34.959
40.207
45.117
49.59
53.863
58.44
63.534
69.627
77.857
89.339
105.055
125.632
150.754
179.617
211.75
246.298
281.471
315.048
344.357
366.909
381.299
386.517
381.228
364.575
337.361
301.975
261.454
218.355
172.89
124.447
75.025
29.416
-5.354
-23.178
-22.189
-4.727
24.272
60.194
99.137
137.594
171.794
197.466
212.203
216.557
214.39
210.774
209.031
210.007
212.056
213.354
213.555
213.549
214.773
217.772
222.078
226.771
230.916
234.178
236.535
237.879
238.18
237.493
235.957
233.904
231.696
229.492
227.353
225.304
223.325
221.424
219.613
217.852
216.078
214.251
212.355
210.386
208.356
206.251
204.041
201.71
199.246
196.651
193.938
191.123
188.213
185.224
182.171
179.067
175.924
172.753
169.559
166.347
163.126
159.906
156.698
153.514
150.36
147.239
144.154
141.105
138.091
135.109
132.155
129.224
126.318
123.434
120.572
117.731
114.912
112.112
109.33
106.566
103.816
101.08
98.355
95.64
92.935
90.242
87.562
84.896
82.248
79.62
77.018
74.444
71.905
69.404
66.947
64.539
62.186
59.895
57.671
55.519
53.446
51.456
49.554
47.745
46.033
44.42
42.909
41.502
40.202
39.008
37.92
36.939
36.062
35.289
34.617
34.042
33.561
33.168
32.858
32.624
32.459
32.355
32.303
32.294
32.319
32.367
32.429
32.494
32.553
32.594
32.609
32.587
32.521
32.401
32.22
31.971
31.647
31.244
30.756
30.181
29.514
28.755
27.902
26.954
25.912
24.778
23.553
22.24
20.842
19.364
17.811
16.187
14.5
12.755
10.96
9.121
7.247
5.346
3.424
1.491
-0.446
-2.381
-4.304
-6.211
-8.095
-9.95
-11.771
-13.554
-15.296
-16.993
-18.644
-20.247
-21.802
-23.308
-24.765
-26.175
-27.538
-28.857
-30.134
-31.371
-32.57
-33.734
-34.866
-35.969
-37.045
-38.098
-39.13
-40.144
-41.143
-42.128
-43.102
-44.066
-45.022
-45.971
-46.912
-47.845
-48.769
-49.682
-50.583
-51.467
-52.332
-53.173
-53.985
-54.763
-55.501
-56.192
-56.83
-57.406
-57.915
-58.347
-58.696
-58.955
-59.116
-59.173
-59.12
-58.949
-58.657
-58.236
-57.684
-56.995
-56.165
-55.192
-54.074
-52.809
-51.395
-49.834
-48.127
-46.274
-44.28
-42.148
-39.882
-37.488
-34.971
-32.338
-29.597
-26.757
-23.827
-20.819
-17.745
-14.617
-11.448
-8.252
-5.043
-1.834
1.36
4.525
7.648
10.715
13.711
16.621
19.433
22.131
24.7
27.128
29.399
31.5
33.418
35.143
36.665
37.977
39.069
39.936
40.57
40.969
41.126
41.04
40.705
40.121
39.287
38.208
36.886
35.328
33.542
31.532
29.305
26.871
24.232
21.392
18.354
15.114
11.67
8.033
4.211
0.219
-3.917
-8.178
-12.539
-16.965
-21.435
-25.93
-30.429
-34.929
-39.414
-43.861
-48.25
-52.544
-56.702
-60.704
-64.519
-68.143
-71.617
-74.984
-78.307
-81.688
-85.178
-88.837
-92.752
-96.902
-101.217
-105.588
-109.788
-113.661
-117.163
-120.149
-122.532
-124.447
-126.084
-127.866
-130.467
-134.289
-139.599
-146.771
-155.83
-166.37
-177.728
-188.71
-197.782
-203.709
-205.338
-201.458
-191.302
-174.802
-152.558
-125.74
-96.623
-67.545
-40.07
-16.637
1.814
14.919
19.352
13.055
-6.364
-40.749
-85.449
-135.841
-188.19
-239.327
-291.066
-343.27
-391.761
-430.679
-453.067
-456.157
-443.27
-421.806
-399.322
-380.568
-366.858
-356.305
-347.128
-338.966
-332.022
-326.983
-323.87
-321.635
-319.151
-315.794
-311.389
-306.109
-300.272
-294.124
-287.918
-282.047
-276.897
-272.623
-269.218
-266.569
-264.498
-262.874
-261.588
-260.491
-259.41
-258.226
-256.873
-255.334
-253.628
-251.769
-249.752
-247.586
-245.3
-242.929
-240.521
-238.117
-235.75
-233.459
-231.291
-229.297
-227.53
-226.032
-224.823
-223.918
-223.322
-223.036
-223.059
-223.386
-224
-224.884
-226.023
-227.404
-229.014
-230.837
-232.853
-235.037
-237.366
-239.818
-242.374
-245.013
-247.716
-250.462
-253.234
-256.013
-258.783
-261.527
-264.225
-266.856
-269.4
-271.835
-274.143
-276.304
-278.298
-280.108
-281.717
-283.11
-284.271
-285.188
-285.846
-286.234
-286.341
-286.155
-285.67
-284.875
-283.766
-282.336
-280.582
-278.502
-276.095
-273.36
-270.3
-266.917
-263.215
-259.2
-254.877
-250.255
-245.34
-240.143
-234.673
-228.942
-222.963
-216.747
-210.309
-203.664
-196.826
-189.812
-182.636
-175.316
-167.869
-160.31
-152.657
-144.928
-137.141
-129.311
-121.458
-113.598
-105.748
-97.927
-90.149
-82.431
-74.788
-67.236
-59.789
-52.459
-45.261
-38.208
-31.309
-24.578
-18.024
-11.657
-5.487
0.479
6.234
11.771
17.084
22.171
27.026
31.648
36.036
40.19
44.109
47.796
51.253
54.484
57.494
60.288
62.873
65.255
67.444
69.447
71.275
72.935
74.44
75.799
77.024
78.126
79.116
80.006
80.809
81.537
82.203
82.82
83.399
83.955
84.499
85.043
85.599
86.179
86.793
87.452
88.167
88.945
89.796
90.728
91.748
92.861
94.073
95.388
96.81
98.34
99.982
101.735
103.601
105.579
107.669
109.869
112.177
114.591
117.106
119.72
122.428
125.225
128.107
131.067
134.101
137.203
140.366
143.585
146.853
150.165
153.513
156.892
160.295
163.718
167.153
170.597
174.045
177.494
180.94
184.38
187.814
191.238
194.651
198.052
201.439
204.812
208.17
211.511
214.838
218.148
221.444
224.725
227.992
231.245
234.483
237.705
240.909
244.094
247.258
250.399
253.513
256.598
259.652
262.671
265.654
268.596
271.49
274.332
277.115
279.83
282.469
285.021
287.474
289.819
292.046
294.147
296.111
297.932
299.6
301.11
302.452
303.621
304.606
305.4
305.995
306.384
306.565
306.535
306.295
305.846
305.189
304.33
303.272
302.016
300.559
298.894
297.015
294.917
292.604
290.082
287.362
284.462
281.413
278.247
275.001
271.706
268.38
265.039
261.691
258.352
255.042
251.792
248.63
245.592
242.708
240.004
237.51
235.215
233.059
230.976
228.866
226.639
224.258
221.672
218.812
215.709
212.436
209.114
205.979
203.196
200.836
199.063
197.978
197.485
197.431
197.437
196.884
195.367
192.553
187.997
181.596
173.687
164.9
156.385
149.633
145.946
146.667
153.268
166.648
186.909
213.478
245.068
279.806
315.523
349.672
379.115
400.879
412.792
413.079
401.05
377.537
343.704
301.379
251.432
192.839
126.747
56.832
-9.044
-59.372
-87.705
-93.267
-80.841
-60.313
-37.989
-16.575
3.031
22.615
42.111
59.909
74.653
84.4
88.435
87.608
83.198
76.967
70.551
64.762
60.115
57.196
56.252
57.205
59.723
63.023
66.249
68.976
70.987
72.093
72.284
71.604
70.156
68.258
66.278
64.407
62.722
61.244
59.928
58.759
57.737
56.81
55.905
54.97
53.977
52.913
51.78
50.558
49.207
47.699
46.015
44.149
42.109
39.904
37.542
35.037
32.409
29.67
26.838
23.928
20.948
17.911
14.834
11.737
8.643
5.574
2.551
-0.408
-3.286
-6.07
-8.747
-11.306
-13.739
-16.036
-18.186
-20.18
-22.007
-23.658
-25.124
-26.401
-27.482
-28.365
-29.047
-29.53
-29.815
-29.903
-29.798
-29.502
-29.021
-28.359
-27.522
-26.518
-25.353
-24.037
-22.579
-20.988
-19.277
-17.456
-15.538
-13.536
-11.461
-9.328
-7.149
-4.94
-2.712
-0.481
1.74
3.936
6.095
8.203
10.246
12.211
14.087
15.862
17.523
19.061
20.465
21.726
22.834
23.78
24.557
25.156
25.569
25.791
25.814
25.632
25.24
24.634
23.808
22.76
21.486
19.983
18.252
16.289
14.095
11.67
9.016
6.133
3.025
-0.306
-3.856
-7.621
-11.595
-15.774
-20.15
-24.718
-29.47
-34.397
-39.491
-44.742
-50.141
-55.677
-61.337
-67.111
-72.985
-78.946
-84.979
-91.07
-97.204
-103.363
-109.533
-115.696
-121.835
-127.933
-133.973
-139.936
-145.805
-151.563
-157.192
-162.675
-167.996
-173.136
-178.08
-182.812
-187.317
-191.578
-195.583
-199.317
-202.767
-205.922
-208.77
-211.301
-213.507
-215.377
-216.906
-218.087
-218.916
-219.389
-219.503
-219.258
-218.654
-217.693
-216.377
-214.71
-212.698
-210.346
-207.661
-204.651
-201.324
-197.69
-193.76
-189.543
-185.051
-180.297
-175.294
-170.055
-164.593
-158.923
-153.059
-147.014
-140.804
-134.442
-127.943
-121.32
-114.589
-107.762
-100.856
-93.883
-86.857
-79.792
-72.7
-65.595
-58.487
-51.388
-44.309
-37.261
-30.253
-23.296
-16.402
-9.581
-2.845
3.797
10.333
16.752
23.045
29.201
35.211
41.066
46.755
52.268
57.595
62.725
67.647
72.349
76.818
81.042
85.008
88.709
92.132
95.271
98.117
100.664
102.907
104.84
106.457
107.749
108.709
109.33
109.609
109.542
109.131
108.377
107.282
105.853
104.101
102.037
99.665
96.985
93.99
90.68
87.067
83.167
78.996
74.571
69.913
65.055
60.048
54.94
49.767
44.55
39.296
34.02
28.751
23.527
18.396
13.385
8.495
3.743
-0.845
-5.247
-9.439
-13.451
-17.38
-21.309
-25.309
-29.424
-33.645
-38.008
-42.595
-47.401
-52.368
-57.325
-61.96
-66.053
-69.503
-72.128
-73.801
-74.575
-74.561
-74.159
-74.093
-74.888
-76.964
-80.785
-86.41
-93.403
-101.029
-108.064
-112.937
-114.317
-110.847
-101.075
-84.235
-60.373
-30.247
4.62
42.278
80.678
117.302
149.186
173.616
188.311
191.624
182.614
161.416
129.29
88.072
39.788
-14.906
-76.013
-141.459
-206.389
-262.673
-301.966
-320.45
-319.566
-305.404
-284.875
-262.267
-239.124
-214.863
-189.564
-164.758
-142.798
-126.419
-116.882
-114.009
-116.937
-124.091
-133.848
-144.823
-155.473
-164.446
-171.025
-174.866
-176.008
-174.934
-172.236
-168.552
-164.666
-161.161
-158.265
-156.056
-154.463
-153.291
-152.361
-151.452
-150.271
-148.65
-146.551
-143.986
-141.026
-137.741
-134.16
-130.331
-126.328
-122.202
-117.998
-113.753
-109.471
-105.161
-100.843
-96.529
-92.23
-87.953
-83.692
-79.439
-75.196
-70.97
-66.769
-62.603
-58.478
-54.398
-50.365
-46.379
-42.441
-38.55
-34.705
-30.905
-27.149
-23.437
-19.773
-16.161
-12.606
-9.107
-5.664
-2.275
1.062
4.348
7.584
10.772
13.914
17.008
20.053
23.048
25.99
28.878
31.709
34.482
37.194
39.841
42.423
44.933
47.37
49.729
52.005
54.193
56.288
58.284
60.174
61.955
63.62
65.164
66.581
67.867
69.017
70.027
70.893
71.612
72.182
72.599
72.863
72.974
72.93
72.734
72.387
71.892
71.254
70.477
69.568
68.532
67.379
66.117
64.754
63.303
61.773
60.177
58.527
56.837
55.12
53.391
51.664
49.952
48.271
46.634
45.055
43.547
42.122
40.791
39.567
38.458
37.472
36.619
35.903
35.332
34.907
34.632
34.509
34.537
34.715
35.04
35.507
36.112
36.845
37.701
38.668
39.735
40.892
42.124
43.418
44.759
46.13
47.516
48.9
50.265
51.594
52.869
54.075
55.195
56.215
57.119
57.894
58.527
59.007
59.324
59.47
59.436
59.217
58.808
58.207
57.412
56.423
55.242
53.872
52.317
50.584
48.678
46.61
44.388
42.023
39.529
36.917
34.202
31.399
28.524
25.593
22.623
19.629
16.628
13.637
10.672
7.747
4.877
2.076
-0.644
-3.271
-5.794
-8.205
-10.497
-12.662
-14.698
-16.599
-18.366
-19.996
-21.492
-22.854
-24.087
-25.194
-26.181
-27.055
-27.823
-28.495
-29.08
-29.59
-30.037
-30.435
-30.797
-31.137
-31.47
-31.811
-32.174
-32.573
-33.022
-33.536
-34.125
-34.804
-35.583
-36.472
-37.481
-38.618
-39.889
-41.299
-42.851
-44.546
-46.385
-48.366
-50.487
-52.743
-55.131
-57.646
-60.281
-63.028
-65.876
-68.813
-71.825
-74.895
-78.002
-81.126
-84.245
-87.339
-90.386
-93.369
-96.27
-99.073
-101.764
-104.329
-106.754
-109.027
-111.137
-113.077
-114.838
-116.412
-117.795
-118.983
-119.972
-120.754
-121.323
-121.667
-121.769
-121.607
-121.153
-120.384
-119.278
-117.81
-115.952
-113.669
-110.942
-107.777
-104.192
-100.217
-95.9
-91.276
-86.408
-81.409
-76.321
-71.155
-65.9
-60.433
-54.67
-48.617
-42.198
-35.315
-28.119
-20.845
-13.859
-7.845
-3.317
-0.593
-0.164
-2.367
-6.958
-13.437
-20.973
-28.057
-33.193
-34.977
-31.623
-22.13
-7.02
13.007
37.673
67.647
104.39
147.491
192.329
230.345
253.204
255.961
239.066
208.877
172.086
133.02
93.6
52.74
9.938
-32.963
-72.741
-105.479
-128.325
-140.196
-141.151
-131.861
-113.262
-86.893
-55.031
-20.388
14.181
46.234
73.743
95.061
109.304
116.382
116.902
112.196
103.959
93.887
83.825
75.373
69.463
66.593
66.816
69.675
74.534
80.633
86.976
92.793
97.7
101.458
104.044
105.603
106.269
106.273
105.95
105.488
104.94
104.313
103.526
102.506
101.227
99.628
97.634
95.21
92.333
89.01
85.284
81.18
76.717
71.914
66.79
61.371
55.697
49.796
43.692
37.409
30.97
24.4
17.73
10.986
4.2
-2.599
-9.38
-16.111
-22.762
-29.299
-35.691
-41.91
-47.93
-53.726
-59.273
-64.545
-69.519
-74.171
-78.483
-82.434
-86.008
-89.191
-91.973
-94.347
-96.308
-97.855
-98.989
-99.71
-100.025
-99.94
-99.461
-98.6
-97.369
-95.78
-93.85
-91.596
-89.037
-86.194
-83.089
-79.745
-76.185
-72.433
-68.515
-64.454
-60.277
-56.008
-51.673
-47.296
-42.902
-38.515
-34.158
-29.853
-25.622
-21.482
-17.454
-13.552
-9.792
-6.187
-2.747
0.516
3.595
6.483
9.175
11.667
13.957
16.045
17.932
19.619
21.111
22.414
23.532
24.474
25.247
25.861
26.325
26.649
26.844
26.922
26.892
26.768
26.561
26.283
25.945
25.558
25.134
24.684
24.216
23.74
23.265
22.798
22.345
21.913
21.508
21.132
20.789
20.482
20.212
19.979
19.784
19.624
19.498
19.403
19.336
19.292
19.267
19.257
19.255
19.257
19.257
19.25
19.229
19.188
19.123
19.026
18.893
18.718
18.497
18.225
17.899
17.513
17.067
16.557
15.981
15.34
14.632
13.858
13.02
12.119
11.16
10.144
9.078
7.966
6.813
5.627
4.413
3.178
1.93
0.676
-0.577
-1.822
-3.051
-4.257
-5.435
-6.578
-7.679
-8.735
-9.739
-10.688
-11.578
-12.405
-13.167
-13.861
-14.487
-15.042
-15.528
-15.944
-16.293
-16.577
-16.802
-16.971
-17.091
-17.169
-17.211
-17.228
-17.227
-17.219
-17.212
-17.218
-17.245
-17.307
-17.412
-17.571
-17.795
-18.092
-18.473
-18.946
-19.517
-20.192
-20.977
-21.875
-22.891
-24.028
-25.291
-26.68
-28.196
-29.838
-31.606
-33.494
-35.496
-37.603
-39.802
-42.082
-44.431
-46.838
-49.29
-51.775
-54.279
-56.791
-59.299
-61.791
-64.258
-66.689
-69.076
-71.412
-73.694
-75.918
-78.083
-80.18
-82.2
-84.13
-85.955
-87.658
-89.222
-90.625
-91.843
-92.849
-93.615
-94.107
-94.281
-94.104
-93.554
-92.619
-91.311
-89.654
-87.672
-85.435
-83.049
-80.56
-77.957
-75.177
-72.081
-68.604
-64.791
-60.615
-55.992
-51.025
-45.969
-41.316
-37.807
-35.858
-35.54
-36.984
-40.337
-45.506
-52.165
-59.363
-65.57
-69.787
-71.442
-69.843
-64.29
-54.055
-38.591
-18.392
5.217
31.356
59.202
87.444
114.47
137.979
155.565
165.949
168.345
161.505
144.71
118.124
83.184
43.22
1.059
-41.628
-83.845
-125.181
-162.787
-192.742
-210.915
-212.511
-196.994
-166.58
-126.24
-85.097
-49.601
-23.394
-6.673
5.191
15.422
25.69
36.259
45.102
51.682
56.41
59.845
63.364
67.727
73.289
80.21
88.073
96.258
104.141
111.344
117.786
123.44
128.243
132.175
135.284
137.772
139.97
142.07
144.123
146.138
148.078
149.935
151.718
153.393
154.885
156.14
157.127
157.832
158.262
158.406
158.235
157.736
156.902
155.741
154.274
152.522
150.502
148.243
145.772
143.118
140.307
137.363
134.306
131.159
127.947
124.696
121.43
118.175
114.954
111.785
108.689
105.678
102.768
99.966
97.283
94.726
92.305
90.026
87.896
85.919
84.097
82.434
80.927
79.574
78.371
77.311
76.387
75.589
74.911
74.341
73.869
73.484
73.175
72.93
72.736
72.581
72.451
72.334
72.216
72.085
71.927
71.731
71.483
71.172
70.786
70.314
69.747
69.075
68.288
67.378
66.34
65.167
63.853
62.395
60.79
59.036
57.131
55.076
52.872
50.52
48.024
45.386
42.611
39.704
36.669
33.513
30.242
26.862
23.382
19.808
16.149
12.412
8.607
4.743
0.829
-3.125
-7.11
-11.116
-15.131
-19.147
-23.152
-27.138
-31.093
-35.008
-38.874
-42.68
-46.417
-50.076
-53.647
-57.122
-60.491
-63.747
-66.88
-69.882
-72.747
-75.465
-78.03
-80.433
-82.669
-84.731
-86.61
-88.302
-89.8
-91.1
-92.195
-93.081
-93.756
-94.215
-94.455
-94.475
-94.272
-93.846
-93.197
-92.323
-91.225
-89.905
-88.364
-86.605
-84.629
-82.441
-80.044
-77.442
-74.641
-71.645
-68.459
-65.09
-61.544
-57.829
-53.951
-49.919
-45.741
-41.426
-36.983
-32.42
-27.747
-22.973
-18.107
-13.157
-8.132
-3.039
2.111
7.313
12.557
17.836
23.142
28.468
33.808
39.155
44.502
49.844
55.175
60.49
65.784
71.051
76.286
81.484
86.64
91.748
96.803
101.802
106.739
111.611
116.413
121.142
125.791
130.358
134.834
139.215
143.491
147.654
151.694
155.6
159.362
162.971
166.417
169.692
172.789
175.697
178.408
180.915
183.212
185.289
187.137
188.744
190.098
191.195
192.03
192.604
192.912
192.946
192.699
192.163
191.326
190.18
188.713
186.908
184.755
182.25
179.398
176.218
172.742
168.984
164.956
160.672
156.139
151.395
146.483
141.435
136.279
131.033
125.695
120.3
114.932
109.576
104.136
98.491
92.455
85.972
79.149
71.992
64.337
56.139
47.54
38.793
30.396
22.623
15.243
8.139
1.451
-4.791
-10.713
-16.661
-23.586
-32.28
-42.721
-54.891
-68.799
-84.25
-101.116
-118.835
-135.786
-150.18
-160.777
-166.336
-165.955
-158.882
-143.986
-120.775
-89.96
-52.853
-11.08
33.455
78.998
123.304
163.279
196.137
219.558
231.651
231.217
217.336
190.145
151.553
104.068
50.006
-10.05
-76.913
-148.771
-220.479
-283.565
-328.022
-348.901
-347.448
-329.051
-302.628
-275.901
-252.462
-234.179
-219.691
-204.974
-187.702
-166.007
-140.131
-113.382
-88.092
-65.876
-47.204
-31.089
-17.377
-6.327
2.009
7.693
11.521
14.475
16.968
19.289
21.688
24.203
26.866
29.447
31.288
31.892
31.136
29.01
25.68
21.409
16.356
10.808
5.228
-0.08
-4.946
-9.273
-13.109
-16.497
-19.429
-21.957
-24.162
-26.101
-27.858
-29.496
-31.05
-32.602
-34.221
-35.961
-37.887
-40.027
-42.382
-44.957
-47.738
-50.694
-53.803
-57.028
-60.327
-63.668
-67.01
-70.307
-73.514
-76.573
-79.432
-82.057
-84.412
-86.474
-88.228
-89.657
-90.756
-91.528
-91.973
-92.093
-91.889
-91.362
-90.514
-89.353
-87.889
-86.135
-84.103
-81.806
-79.255
-76.465
-73.449
-70.221
-66.796
-63.186
-59.406
-55.475
-51.41
-47.233
-42.965
-38.624
-34.231
-29.808
-25.375
-20.952
-16.556
-12.206
-7.919
-3.712
0.399
4.399
8.273
12.008
15.593
19.015
22.265
25.334
28.215
30.902
33.39
35.676
37.757
39.632
41.302
42.769
44.035
45.105
45.984
46.679
47.196
47.545
47.734
47.773
47.672
47.442
47.092
46.634
46.077
45.434
44.714
43.927
43.084
42.195
41.269
40.315
39.342
38.358
37.372
36.389
35.418
34.463
33.53
32.623
31.745
30.901
30.09
29.315
28.575
27.869
27.196
26.552
25.934
25.339
24.763
24.2
23.645
23.094
22.54
21.98
21.406
20.814
20.197
19.552
18.872
18.154
17.393
16.584
15.726
14.814
13.845
12.818
11.73
10.58
9.367
8.09
6.748
5.343
3.877
2.351
0.768
-0.867
-2.55
-4.275
-6.036
-7.829
-9.646
-11.482
-13.329
-15.182
-17.034
-18.878
-20.709
-22.519
-24.303
-26.055
-27.769
-29.442
-31.07
-32.651
-34.182
-35.662
-37.091
-38.466
-39.79
-41.062
-42.282
-43.451
-44.57
-45.642
-46.672
-47.664
-48.623
-49.555
-50.471
-51.379
-52.289
-53.209
-54.148
-55.113
-56.112
-57.152
-58.238
-59.376
-60.573
-61.835
-63.17
-64.586
-66.089
-67.681
-69.367
-71.147
-73.021
-74.988
-77.045
-79.184
-81.405
-83.709
-86.104
-88.6
-91.199
-93.896
-96.69
-99.575
-102.537
-105.559
-108.604
-111.632
-114.62
-117.549
-120.41
-123.204
-125.917
-128.531
-131.036
-133.411
-135.648
-137.74
-139.665
-141.411
-142.984
-144.424
-145.818
-147.265
-148.84
-150.607
-152.601
-154.858
-157.448
-160.356
-163.489
-166.718
-169.825
-172.652
-175.139
-177.145
-178.524
-179.303
-179.573
-179.599
-179.899
-180.781
-182.436
-185.185
-189.08
-193.833
-198.987
-203.654
-206.662
-207.112
-204.06
-196.421
-183.578
-165.403
-142.252
-115.115
-85.287
-54.188
-23.758
3.651
25.687
40.157
45.333
39.729
22.629
-5.115
-41.808
-85.295
-134.542
-191.178
-256.077
-326.657
-396.507
-454.271
-489.129
-496.529
-476.82
-436.791
-387.657
-338.436
-297.218
-269.06
-252.819
-245.505
-242.463
-239.127
-234.346
-228.799
-224.223
-221.598
-220.48
-219.668
-217.279
-212.424
-205.313
-196.415
-186.711
-177.169
-168.119
-159.767
-152.382
-145.954
-140.44
-135.763
-131.558
-127.422
-123.164
-118.681
-113.939
-109
-103.874
-98.552
-93.103
-87.607
-82.124
-76.7
-71.343
-66.045
-60.83
-55.735
-50.809
-46.087
-41.581
-37.289
-33.204
-29.318
-25.626
-22.117
-18.767
-15.558
-12.473
-9.498
-6.625
-3.84
-1.123
1.551
4.205
6.861
9.536
12.244
15.001
17.818
20.703
23.665
26.709
29.839
33.064
36.388
39.818
43.357
47.007
50.766
54.636
58.611
62.687
66.857
71.113
75.446
79.849
84.31
88.82
93.367
97.94
102.525
107.112
111.686
116.234
120.742
125.195
129.582
133.888
138.101
142.208
146.197
150.058
153.781
157.355
160.773
164.027
167.109
170.015
172.74
175.281
177.636
179.803
181.782
183.576
185.185
186.614
187.867
188.947
189.861
190.614
191.213
191.664
191.974
192.15
192.2
192.131
191.951
191.667
191.286
190.815
190.261
189.63
188.928
188.16
187.331
186.445
185.505
184.516
183.479
182.396
181.27
180.101
178.889
177.636
176.341
175.003
173.621
172.196
170.726
169.209
167.647
166.037
164.381
162.677
160.926
159.129
157.286
155.4
153.472
151.505
149.503
147.468
145.407
143.324
141.225
139.118
137.009
134.907
132.819
130.754
128.723
126.734
124.797
122.923
121.123
119.406
117.783
116.265
114.86
113.579
112.43
111.42
110.558
109.85
109.302
108.919
108.706
108.665
108.799
109.109
109.596
110.257
111.091
112.094
113.26
114.585
116.059
117.676
119.426
121.298
123.28
125.362
127.527
129.763
132.052
134.378
136.724
139.071
141.401
143.697
145.94
148.112
150.197
152.177
154.035
155.756
157.322
158.718
159.929
160.939
161.737
162.309
162.642
162.727
162.556
162.122
161.423
160.453
159.209
157.691
155.901
153.842
151.521
148.943
146.117
143.056
139.774
136.291
132.624
128.792
124.812
120.699
116.474
112.154
107.758
103.301
98.791
94.235
89.648
85.051
80.472
75.936
71.462
67.076
62.811
58.702
54.788
51.099
47.655
44.48
41.602
39.055
36.894
35.179
33.955
33.245
33.037
33.306
34.022
35.133
36.577
38.256
40.032
41.857
43.763
45.835
48.259
51.187
54.627
58.642
63.359
68.665
74.336
79.943
84.668
87.889
89.308
88.549
85.396
80.146
73.335
66.032
60.036
56.796
57.496
63.575
76.006
95.083
120.685
151.763
186.402
222.9
259.321
292.977
321.469
342.722
354.765
356.42
347.051
326.016
294.112
253.847
207.527
157.19
103.529
46.261
-12.372
-67.511
-111.851
-138.881
-147.011
-138.176
-118.232
-92.985
-64.16
-34.097
-5.018
20.793
37.846
44.048
41.79
33.751
24.446
16.315
7.953
-1.178
-10.927
-20.438
-27.749
-31.983
-33.431
-32.762
-30.744
-28.01
-25.183
-22.78
-21.156
-20.479
-20.619
-21.338
-22.471
-23.803
-25.086
-26.186
-27.018
-27.565
-27.906
-28.103
-28.189
-28.225
-28.256
-28.313
-28.427
-28.61
-28.867
-29.213
-29.654
-30.201
-30.858
-31.62
-32.479
-33.424
-34.439
-35.515
-36.643
-37.811
-39.012
-40.236
-41.471
-42.701
-43.909
-45.076
-46.184
-47.217
-48.157
-48.99
-49.705
-50.292
-50.746
-51.059
-51.223
-51.231
-51.078
-50.759
-50.271
-49.613
-48.785
-47.79
-46.634
-45.323
-43.867
-42.276
-40.562
-38.735
-36.81
-34.801
-32.722
-30.591
-28.423
-26.236
-24.047
-21.877
-19.742
-17.662
-15.656
-13.74
-11.934
-10.252
-8.712
-7.328
-6.114
-5.081
-4.241
-3.605
-3.179
-2.97
-2.983
-3.221
-3.686
-4.377
-5.292
-6.426
-7.775
-9.33
-11.083
-13.024
-15.141
-17.423
-19.855
-22.424
-25.113
-27.908
-30.792
-33.749
-36.761
-39.812
-42.885
-45.964
-49.033
-52.076
-55.079
-58.028
-60.911
-63.715
-66.431
-69.049
-71.56
-73.96
-76.242
-78.403
-80.44
-82.352
-84.141
-85.808
-87.355
-88.788
-90.112
-91.333
-92.459
-93.498
-94.46
-95.353
-96.188
-96.976
-97.727
-98.453
-99.163
-99.869
-100.582
-101.311
-102.066
-102.855
-103.687
-104.568
-105.504
-106.501
-107.561
-108.687
-109.881
-111.141
-112.467
-113.854
-115.3
-116.799
-118.344
-119.928
-121.542
-123.175
-124.818
-126.459
-128.086
-129.686
-131.246
-132.752
-134.192
-135.55
-136.814
-137.969
-139.002
-139.899
-140.647
-141.233
-141.646
-141.875
-141.91
-141.743
-141.365
-140.773
-139.963
-138.932
-137.679
-136.206
-134.515
-132.611
-130.5
-128.187
-125.683
-122.996
-120.138
-117.123
-113.964
-110.675
-107.272
-103.773
-100.193
-96.552
-92.866
-89.153
-85.43
-81.715
-78.027
-74.386
-70.809
-67.315
-63.92
-60.642
-57.495
-54.489
-51.635
-48.936
-46.395
-44.016
-41.801
-39.751
-37.867
-36.149
-34.6
-33.219
-32.008
-30.964
-30.083
-29.362
-28.799
-28.395
-28.145
-28.049
-28.101
-28.294
-28.616
-29.055
-29.587
-30.186
-30.813
-31.426
-31.985
-32.457
-32.797
-32.958
-32.886
-32.527
-31.862
-30.888
-29.607
-28.041
-26.205
-24.142
-21.958
-19.707
-17.38
-14.925
-12.183
-9.02
-5.434
-1.356
3.355
8.593
14.091
19.38
23.649
26.283
27.011
25.45
21.22
14.461
5.701
-3.934
-12.672
-19.038
-21.946
-20.121
-12.126
2.888
24.986
53.41
85.91
120.252
155.175
188.371
218.181
243.23
259.575
264.772
256.316
231.534
193.2
144.77
90.225
35.033
-19.096
-70.57
-116.379
-154.486
-182.338
-198.239
-202.494
-196.029
-180.251
-157.274
-129.898
-101.124
-73.642
-49.599
-30.366
-16.822
-9.418
-7.922
-11.232
-17.764
-25.92
-34.208
-41.563
-47.183
-50.501
-51.376
-50.123
-47.375
-43.886
-40.434
-37.51
-35.404
-34.31
-34.208
-34.959
-36.352
-38.075
-39.796
-41.341
-42.635
-43.644
-44.414
-44.974
-45.34
-45.572
-45.733
-45.855
-45.961
-46.057
-46.139
-46.229
-46.345
-46.496
-46.691
-46.923
-47.179
-47.449
-47.719
-47.97
-48.192
-48.372
-48.497
-48.562
-48.559
-48.477
-48.303
-48.023
-47.623
-47.092
-46.419
-45.596
-44.617
-43.48
-42.182
-40.726
-39.11
-37.334
-35.397
-33.298
-31.037
-28.617
-26.039
-23.306
-20.423
-17.395
-14.229
-10.935
-7.519
-3.99
-0.357
3.371
7.185
11.073
15.027
19.034
23.083
27.164
31.262
35.367
39.466
43.545
47.594
51.6
55.551
59.435
63.24
66.955
70.568
74.07
77.448
80.692
83.792
86.736
89.516
92.122
94.543
96.77
98.796
100.61
102.205
103.574
104.708
105.601
106.246
106.637
106.768
106.636
106.235
105.563
104.615
103.392
101.89
100.109
98.05
95.713
93.099
90.211
87.052
83.625
79.935
75.987
71.788
67.345
62.666
57.76
52.637
47.308
41.785
36.081
30.21
24.187
18.027
11.747
5.362
-1.108
-7.648
-14.239
-20.863
-27.502
-34.138
-40.753
-47.33
-53.85
-60.296
-66.653
-72.903
-79.031
-85.024
-90.866
-96.545
-102.049
-107.366
-112.487
-117.401
-122.101
-126.58
-130.831
-134.85
-138.634
-142.182
-145.491
-148.565
-151.404
-154.013
-156.395
-158.556
-160.501
-162.237
-163.771
-165.111
-166.264
-167.239
-168.044
-168.69
-169.185
-169.538
-169.76
-169.858
-169.841
-169.716
-169.492
-169.174
-168.77
-168.284
-167.722
-167.089
-166.391
-165.631
-164.813
-163.94
-163.013
-162.034
-161.003
-159.918
-158.779
-157.582
-156.326
-155.008
-153.627
-152.183
-150.676
-149.106
-147.473
-145.775
-144.014
-142.186
-140.29
-138.321
-136.277
-134.154
-131.953
-129.675
-127.32
-124.892
-122.395
-119.832
-117.207
-114.524
-111.785
-108.991
-106.145
-103.251
-100.317
-97.356
-94.388
-91.428
-88.491
-85.585
-82.719
-79.897
-77.118
-74.375
-71.654
-68.933
-66.199
-63.437
-60.64
-57.804
-54.928
-52.001
-49.005
-45.933
-42.794
-39.605
-36.393
-33.174
-29.955
-26.77
-23.697
-20.828
-18.27
-16.127
-14.458
-13.342
-12.889
-13.135
-14.052
-15.5
-17.179
-18.801
-20.193
-21.143
-21.418
-21.033
-20.118
-19.039
-18.576
-19.313
-21.525
-25.583
-31.663
-39.342
-47.923
-56.178
-62.129
-64.227
-61.255
-51.733
-34.701
-9.978
22.171
60.463
102.637
146.65
190.189
230.22
264.126
289.567
304.368
307.455
298.45
277.046
244.599
203.552
155.616
103.558
49.184
-6.177
-57.733
-101.533
-133.906
-151.494
-156.301
-150.669
-136.708
-117.955
-95.29
-69.778
-43.583
-17.817
5.652
24.874
38.895
47.335
50.573
49.584
45.579
39.586
32.59
25.856
20.464
17.02
15.827
16.756
19.337
23.194
27.854
32.628
37.023
40.764
43.708
45.927
47.587
48.809
49.779
50.752
51.867
53.183
54.705
56.363
58.098
59.87
61.626
63.3
64.845
66.229
67.431
68.456
69.304
69.969
70.449
70.742
70.855
70.8
70.594
70.244
69.757
69.143
68.409
67.566
66.626
65.601
64.508
63.36
62.173
60.963
59.745
58.533
57.341
56.18
55.057
53.983
52.969
52.024
51.159
50.385
49.71
49.141
48.685
48.346
48.128
48.032
48.056
48.2
48.46
48.834
49.317
49.904
50.591
51.369
52.23
53.167
54.169
55.226
56.325
57.456
58.606
59.762
60.912
62.044
63.145
64.203
65.207
66.146
67.009
67.786
68.468
69.048
69.516
69.868
70.097
70.201
70.177
70.023
69.74
69.328
68.789
68.127
67.345
66.45
65.447
64.343
63.147
61.868
60.515
59.098
57.631
56.123
54.588
53.038
51.487
49.946
48.428
46.947
45.515
44.144
42.845
41.63
40.509
39.492
38.588
37.804
37.148
36.626
36.244
36.004
35.91
35.965
36.17
36.525
37.031
37.685
38.485
39.429
40.513
41.731
43.079
44.55
46.136
47.831
49.626
51.513
53.484
55.528
57.638
59.804
62.017
64.267
66.545
68.843
71.152
73.463
75.77
78.065
80.343
82.598
84.825
87.019
89.177
91.297
93.374
95.407
97.393
99.332
101.223
103.066
104.861
106.609
108.312
109.971
111.589
113.167
114.707
116.213
117.684
119.124
120.534
121.917
123.273
124.605
125.914
127.201
128.468
129.714
130.938
132.138
133.312
134.454
135.562
136.631
137.653
138.624
139.535
140.381
141.154
141.847
142.449
142.952
143.344
143.616
143.755
143.748
143.582
143.245
142.728
142.019
141.111
139.994
138.663
137.114
135.34
133.337
131.098
128.616
125.887
122.906
119.674
116.191
112.46
108.486
104.278
99.851
95.216
90.382
85.352
80.125
74.703
69.101
63.336
57.426
51.389
45.25
39.043
32.821
26.634
20.515
14.483
8.543
2.711
-2.99
-8.525
-13.855
-18.962
-23.844
-28.486
-32.864
-36.956
-40.751
-44.284
-47.652
-50.943
-54.21
-57.486
-60.762
-64.067
-67.486
-71.032
-74.651
-78.198
-81.409
-84.087
-86.179
-87.55
-87.994
-87.477
-86.005
-83.835
-81.667
-80.032
-79.23
-79.664
-81.586
-84.813
-88.998
-93.295
-96.148
-96.316
-92.753
-84.135
-69.468
-48.322
-20.725
11.933
47.023
82.5
116.702
149.012
179.889
208.152
230.412
240.827
233.203
204.776
158.484
102.654
45.551
-8.004
-58.449
-109.924
-163.104
-213.796
-254.008
-275.128
-274.191
-254.541
-223.68
-189.688
-157.454
-128.268
-101.116
-75.289
-51.709
-32.256
-18.843
-12.042
-11.042
-14.412
-20.462
-27.743
-34.877
-40.593
-44.156
-45.252
-43.925
-40.614
-35.853
-30.226
-24.5
-19.271
-14.794
-11.165
-8.314
-6.048
-4.228
-2.666
-1.08
0.689
2.685
4.901
7.25
9.643
12.048
14.407
16.645
18.709
20.553
22.135
23.453
24.502
25.272
25.759
25.958
25.872
25.514
24.899
24.038
22.938
21.605
20.039
18.25
16.247
14.044
11.658
9.103
6.396
3.553
0.591
-2.47
-5.614
-8.826
-12.096
-15.407
-18.744
-22.089
-25.422
-28.725
-31.982
-35.176
-38.29
-41.308
-44.217
-47.004
-49.658
-52.169
-54.528
-56.724
-58.749
-60.595
-62.255
-63.723
-64.993
-66.063
-66.928
-67.588
-68.042
-68.291
-68.336
-68.181
-67.827
-67.281
-66.547
-65.631
-64.54
-63.281
-61.863
-60.293
-58.581
-56.737
-54.771
-52.693
-50.514
-48.245
-45.895
-43.476
-40.999
-38.474
-35.912
-33.324
-30.72
-28.113
-25.511
-22.927
-20.369
-17.849
-15.377
-12.961
-10.611
-8.336
-6.144
-4.044
-2.042
-0.146
1.637
3.301
4.842
6.253
7.53
8.67
9.668
10.523
11.231
11.793
12.206
12.47
12.587
12.557
12.382
12.065
11.608
11.016
10.292
9.442
8.472
7.387
6.194
4.902
3.517
2.047
0.502
-1.11
-2.78
-4.499
-6.257
-8.046
-9.856
-11.678
-13.502
-15.319
-17.121
-18.898
-20.641
-22.343
-23.995
-25.59
-27.121
-28.581
-29.964
-31.265
-32.479
-33.601
-34.626
-35.552
-36.374
-37.091
-37.701
-38.202
-38.594
-38.877
-39.051
-39.116
-39.074
-38.925
-38.672
-38.314
-37.854
-37.292
-36.629
-35.867
-35.007
-34.049
-32.996
-31.849
-30.61
-29.278
-27.855
-26.342
-24.739
-23.046
-21.262
-19.389
-17.426
-15.373
-13.231
-11.002
-8.684
-6.281
-3.792
-1.217
1.441
4.184
7.01
9.918
12.906
15.971
19.109
22.315
25.582
28.9
32.261
35.655
39.074
42.507
45.947
49.383
52.807
56.209
59.58
62.909
66.185
69.397
72.533
75.579
78.525
81.361
84.075
86.656
89.09
91.367
93.475
95.399
97.123
98.624
99.88
100.877
101.602
102.045
102.203
102.074
101.665
101.001
100.11
99.025
97.778
96.39
94.879
93.267
91.577
89.836
88.069
86.282
84.481
82.689
80.912
79.142
77.34
75.409
73.231
70.711
67.729
64.136
59.889
55.012
49.62
43.966
38.281
32.687
27.391
22.644
18.412
14.458
10.306
5.166
-1.481
-9.761
-19.879
-32.028
-45.857
-60.583
-74.817
-86.505
-94.06
-96.515
-92.71
-81.489
-62.377
-35.458
-1.86
36.204
76.891
118.626
159.04
195.329
225
245.806
256.396
256.31
244.833
221.483
187.724
146.686
100.776
52.18
2.176
-49.545
-99.391
-141.224
-170.844
-183.832
-179.754
-163.636
-138.682
-108.805
-79.26
-51.139
-26.772
-8.804
4.482
13.059
17.384
20.035
20.701
19.772
18.604
17.05
16.059
16.814
19.392
23.775
29.581
35.89
41.933
47.386
52.022
55.657
58.315
60.034
60.899
61.203
61.264
61.241
61.227
61.254
61.277
61.289
61.292
61.247
61.105
60.831
60.399
59.801
59.037
58.092
56.941
55.563
53.949
52.101
50.028
47.75
45.285
42.654
39.884
36.998
34.014
30.957
27.847
24.704
21.552
18.419
15.332
12.32
9.41
6.624
3.982
1.502
-0.803
-2.921
-4.841
-6.554
-8.052
-9.327
-10.37
-11.178
-11.746
-12.073
-12.16
-12.011
-11.631
-11.03
-10.216
-9.201
-7.999
-6.624
-5.091
-3.417
-1.619
0.284
2.272
4.326
6.423
8.545
10.668
12.771
14.834
16.837
18.76
20.584
22.292
23.867
25.293
26.556
27.643
28.543
29.247
29.745
30.032
30.103
29.956
29.59
29.006
28.208
27.201
25.992
24.59
23.006
21.252
19.342
17.29
15.113
12.829
10.456
8.013
5.521
3
0.47
-2.049
-4.534
-6.968
-9.33
-11.601
-13.762
-15.797
-17.689
-19.424
-20.986
-22.364
-23.548
-24.527
-25.294
-25.845
-26.174
-26.281
-26.164
-25.827
-25.271
-24.503
-23.531
-22.363
-21.011
-19.488
-17.808
-15.987
-14.043
-11.996
-9.863
-7.668
-5.43
-3.172
-0.916
1.315
3.499
5.613
7.633
9.54
11.31
12.923
14.36
15.602
16.631
17.433
17.993
18.298
18.338
18.104
17.588
16.784
15.691
14.305
12.629
10.664
8.416
5.894
3.106
0.065
-3.217
-6.723
-10.435
-14.336
-18.404
-22.619
-26.958
-31.396
-35.908
-40.469
-45.052
-49.629
-54.172
-58.654
-63.047
-67.324
-71.459
-75.426
-79.202
-82.762
-86.084
-89.147
-91.932
-94.421
-96.596
-98.443
-99.949
-101.103
-101.896
-102.325
-102.384
-102.074
-101.397
-100.355
-98.955
-97.206
-95.117
-92.699
-89.968
-86.939
-83.631
-80.066
-76.267
-72.262
-68.078
-63.744
-59.292
-54.753
-50.157
-45.534
-40.914
-36.326
-31.798
-27.359
-23.039
-18.865
-14.866
-11.073
-7.513
-4.212
-1.195
1.518
3.906
5.949
7.636
8.95
9.878
10.404
10.506
10.167
9.38
8.137
6.439
4.295
1.712
-1.29
-4.676
-8.409
-12.452
-16.767
-21.332
-26.133
-31.145
-36.337
-41.672
-47.123
-52.681
-58.35
-64.112
-69.943
-75.833
-81.801
-87.921
-94.284
-100.963
-108.014
-115.478
-123.418
-131.861
-140.774
-150.041
-159.434
-168.717
-177.722
-186.302
-194.264
-201.525
-208.163
-214.395
-220.698
-227.52
-235.034
-243.393
-252.812
-263.231
-274.235
-285.021
-294.273
-300.675
-303.372
-301.488
-293.974
-280.196
-260.007
-233.779
-202.807
-168.736
-132.843
-97.444
-65.423
-38.506
-18.869
-7.078
-2.551
-7.79
-24.383
-53.569
-96.4
-148.022
-203.08
-257.855
-307.711
-352.224
-392.026
-424.144
-446.591
-456.93
-451.817
-433.229
-406.057
-374.932
-346.365
-323.688
-305.165
-289.737
-275.589
-261.422
-249.65
-241.248
-235.706
-232.672
-230.244
-227.175
-223.484
-218.816
-212.836
-205.6
-197.226
-188.174
-179.198
-170.66
-162.58
-154.993
-147.979
-141.561
-135.704
-130.218
-124.734
-119.036
-113.08
-106.86
-100.411
-93.749
-86.862
-79.78
-72.594
-65.374
-58.162
-50.992
-43.868
-36.812
-29.871
-23.082
-16.471
-10.057
-3.84
2.18
8.001
13.627
19.065
24.32
29.4
34.312
39.057
43.64
48.069
52.35
56.494
60.514
64.418
68.212
71.904
75.496
78.992
82.395
85.703
88.921
92.051
95.097
98.064
100.954
103.772
106.519
109.199
111.813
114.359
116.839
119.25
121.591
123.862
126.062
128.189
130.241
132.217
134.114
135.93
137.663
139.31
140.866
142.329
143.694
144.959
146.119
147.172
148.114
148.939
149.646
150.231
150.69
151.019
151.215
151.276
151.198
150.979
150.617
150.109
149.454
148.652
147.699
146.598
145.345
143.942
142.388
140.682
138.826
136.818
134.66
132.351
129.892
127.285
124.529
121.626
118.578
115.385
112.049
108.572
104.957
101.205
97.32
93.304
89.161
84.895
80.51
76.011
71.402
66.689
61.879
56.977
51.99
46.927
41.796
36.604
31.363
26.081
20.77
15.442
10.109
4.783
-0.522
-5.792
-11.013
-16.169
-21.245
-26.226
-31.093
-35.832
-40.426
-44.856
-49.107
-53.161
-57.001
-60.612
-63.978
-67.082
-69.91
-72.449
-74.684
-76.604
-78.197
-79.453
-80.363
-80.918
-81.113
-80.942
-80.402
-79.49
-78.208
-76.554
-74.533
-72.148
-69.405
-66.31
-62.873
-59.102
-55.009
-50.607
-45.91
-40.933
-35.693
-30.208
-24.497
-18.579
-12.476
-6.207
0.205
6.739
13.373
20.085
26.853
33.656
40.471
47.279
54.057
60.787
67.448
74.023
80.496
86.851
93.073
99.148
105.065
110.812
116.377
121.751
126.924
131.887
136.634
141.16
145.458
149.528
153.366
156.973
160.349
163.496
166.416
169.112
171.586
173.842
175.886
177.72
179.352
180.786
182.029
183.089
183.975
184.697
185.261
185.675
185.948
186.091
186.112
186.021
185.824
185.53
185.15
184.697
184.183
183.62
183.019
182.388
181.737
181.078
180.419
179.762
179.105
178.435
177.747
177.047
176.341
175.643
174.966
174.317
173.714
173.187
172.755
172.435
172.233
172.133
172.141
172.281
172.584
173.112
173.918
175.02
176.422
178.106
180.022
182.134
184.379
186.637
188.787
190.76
192.575
194.371
196.336
198.596
201.181
204.096
207.414
211.14
215.08
218.834
221.776
223.311
223.187
221.296
217.434
211.625
204.247
196.027
188.309
182.543
179.737
180.898
187.13
199.143
217.231
241.057
269.317
300.461
333.045
365.044
394.042
417.683
433.653
440.354
437.015
422.948
397.845
362.57
318.871
269.177
216.524
163.594
112.915
67.568
30.294
2.688
-14.534
-21.691
-19.936
-10.324
5.654
25.373
46.111
65.708
82.369
95.159
103.701
107.391
106.139
100.907
92.955
83.538
73.956
64.866
56.631
49.91
45.021
41.777
39.84
38.621
37.427
35.999
34.261
32.008
29.23
25.983
22.323
18.513
14.856
11.474
8.416
5.705
3.285
1.14
-0.725
-2.372
-3.869
-5.269
-6.619
-7.942
-9.246
-10.545
-11.851
-13.174
-14.522
-15.894
-17.281
-18.671
-20.051
-21.417
-22.769
-24.104
-25.421
-26.715
-27.982
-29.217
-30.416
-31.573
-32.684
-33.743
-34.746
-35.69
-36.577
-37.409
-38.192
-38.928
-39.618
-40.265
-40.872
-41.441
-41.977
-42.484
-42.968
-43.436
-43.896
-44.359
-44.836
-45.338
-45.876
-46.461
-47.103
-47.813
-48.602
-49.479
-50.456
-51.541
-52.743
-54.074
-55.541
-57.154
-58.921
-60.849
-62.947
-65.22
-67.674
-70.314
-73.145
-76.17
-79.391
-82.811
-86.429
-90.245
-94.258
-98.464
-102.858
-107.437
-112.193
-117.117
-122.203
-127.439
-132.815
-138.321
-143.946
-149.678
-155.506
-161.416
-167.397
-173.437
-179.524
-185.644
-191.787
-197.938
-204.087
-210.221
-216.328
-222.398
-228.418
-234.378
-240.266
-246.074
-251.79
-257.405
-262.911
-268.3
-273.564
-278.697
-283.692
-288.545
-293.25
-297.803
-302.202
-306.442
-310.521
-314.437
-318.188
-321.772
-325.186
-328.431
-331.504
-334.404
-337.13
-339.681
-342.056
-344.254
-346.273
-348.114
-349.775
-351.256
-352.556
-353.676
-354.615
-355.374
-355.952
-356.351
-356.571
-356.612
-356.475
-356.161
-355.671
-355.006
-354.167
-353.157
-351.976
-350.627
-349.113
-347.436
-345.6
-343.607
-341.463
-339.171
-336.736
-334.164
-331.46
-328.629
-325.68
-322.618
-319.452
-316.187
-312.833
-309.396
-305.883
-302.304
-298.664
-294.973
-291.237
-287.463
-283.66
-279.834
-275.992
-272.142
-268.289
-264.439
-260.597
-256.768
-252.957
-249.166
-245.399
-241.658
-237.945
-234.263
-230.612
-226.994
-223.408
-219.853
-216.329
-212.833
-209.364
-205.919
-202.493
-199.084
-195.688
-192.302
-188.923
-185.548
-182.173
-178.794
-175.409
-172.015
-168.608
-165.185
-161.742
-158.277
-154.79
-151.278
-147.743
-144.186
-140.611
-137.019
-133.417
-129.808
-126.195
-122.582
-118.972
-115.367
-111.769
-108.18
-104.606
-101.049
-97.516
-94.015
-90.55
-87.127
-83.751
-80.424
-77.151
-73.934
-70.772
-67.665
-64.618
-61.639
-58.743
-55.943
-53.241
-50.638
-48.131
-45.713
-43.376
-41.107
-38.873
-36.644
-34.393
-32.094
-29.746
-27.343
-24.87
-22.304
-19.61
-16.77
-13.798
-10.712
-7.518
-4.223
-0.83
2.629
6.048
9.329
12.386
15.136
17.557
19.605
21.167
22.209
22.764
22.951
23.059
23.352
23.94
25.015
26.822
29.389
32.697
36.492
40.098
43.023
44.994
45.614
44.657
42.386
39.284
36.326
35.114
36.918
42.894
54.404
72.297
96.938
128.295
165.324
206.336
249.187
290.606
327.898
359.285
383.873
402.527
413.571
412.912
396.759
361.648
310.175
249.544
185.963
124.348
65.343
8.241
-44.347
-87.555
-114.691
-121.259
-107.875
-78.391
-40.655
-3.315
28.197
50.02
62.888
71.344
78.093
85.371
93.473
99.982
104.227
106.516
107.414
108.488
110.64
114.174
119.16
125.196
131.676
137.882
143.4
148.12
151.969
154.949
157.085
158.41
159.167
159.756
160.41
161.238
162.276
163.465
164.801
166.306
167.94
169.631
171.318
172.947
174.5
175.977
177.354
178.589
179.632
180.44
180.998
181.303
181.362
181.184
180.78
180.167
179.371
178.417
177.327
176.121
174.815
173.427
171.982
170.506
169.029
167.576
166.172
164.834
163.583
162.433
161.399
160.492
159.718
159.088
158.611
158.295
158.148
158.175
158.381
158.767
159.335
160.081
161.002
162.091
163.339
164.736
166.273
167.937
169.714
171.589
173.546
175.568
177.636
179.732
181.836
183.926
185.983
187.984
189.91
191.739
193.45
195.024
196.442
197.684
198.734
199.576
200.195
200.576
200.708
200.579
200.181
199.507
198.55
197.306
195.774
193.953
191.845
189.454
186.783
183.841
180.635
177.176
173.475
169.545
165.4
161.056
156.53
151.84
147.005
142.045
136.979
131.83
126.619
121.367
116.096
110.829
105.587
100.391
95.262
90.222
85.29
80.486
75.829
71.336
67.026
62.913
59.014
55.344
51.914
48.738
45.827
43.191
40.839
38.778
37.016
35.557
34.405
33.563
33.034
32.816
32.908
33.31
34.017
35.024
36.325
37.915
39.785
41.925
44.327
46.979
49.868
52.983
56.31
59.833
63.537
67.407
71.423
75.57
79.827
84.177
88.598
93.072
97.577
102.091
106.595
111.066
115.482
119.822
124.063
128.185
132.166
135.986
139.623
143.058
146.272
149.246
151.963
154.407
156.561
158.411
159.944
161.147
162.011
162.526
162.686
162.486
161.921
160.991
159.697
158.042
156.031
153.67
150.969
147.938
144.59
140.938
137
132.792
128.334
123.648
118.755
113.679
108.445
103.078
97.604
92.05
86.443
80.811
75.18
69.578
64.032
58.568
53.213
47.992
42.931
38.051
33.375
28.923
24.71
20.75
17.054
13.63
10.485
7.621
5.041
2.744
0.729
-1.006
-2.464
-3.651
-4.578
-5.255
-5.699
-5.924
-5.948
-5.789
-5.469
-5.009
-4.429
-3.75
-2.988
-2.169
-1.32
-0.474
0.329
1.057
1.683
2.179
2.521
2.693
2.681
2.486
2.124
1.604
0.932
0.117
-0.839
-1.919
-3.099
-4.357
-5.663
-6.998
-8.361
-9.749
-11.164
-12.626
-14.153
-15.791
-17.623
-19.723
-22.17
-25.042
-28.392
-32.308
-36.923
-42.301
-48.423
-55.167
-62.263
-69.429
-76.452
-83.066
-88.92
-93.79
-97.684
-100.9
-104.103
-107.985
-112.943
-119.273
-127.32
-137.093
-148.044
-159.068
-168.378
-174.007
-174.504
-168.542
-154.645
-131.878
-100.084
-59.912
-13.136
37.951
91.251
144.159
193.354
235.768
268.536
289.272
296.636
289.561
268.088
234.288
190.837
140.602
84.383
20.675
-49.03
-120.451
-184.665
-229.393
-249.476
-244.55
-219.398
-184.348
-144.107
-102.389
-63.394
-27.795
0.22
18.221
28.438
32.193
32.814
32.375
29.394
23.677
15.397
5.594
-3.061
-9.231
-12.698
-13.556
-12.569
-10.376
-7.391
-4.347
-1.868
-0.178
0.65
0.702
0.185
-0.762
-1.954
-3.083
-3.946
-4.479
-4.673
-4.6
-4.319
-3.835
-3.185
-2.439
-1.64
-0.833
-0.04
0.753
1.554
2.36
3.17
3.983
4.803
5.649
6.535
7.466
8.441
9.456
10.51
11.605
12.744
13.931
15.17
16.465
17.822
19.245
20.739
22.308
23.953
25.672
27.464
29.327
31.261
33.268
35.349
37.504
39.735
42.04
44.42
46.872
49.394
51.979
54.624
57.321
60.064
62.847
65.663
68.504
71.363
74.232
77.102
79.964
82.807
85.622
88.397
91.121
93.78
96.364
98.858
101.251
103.529
105.68
107.691
109.549
111.242
112.757
114.084
115.211
116.128
116.826
117.295
117.529
117.522
117.268
116.765
116.009
114.999
113.735
112.218
110.452
108.438
106.183
103.692
100.973
98.034
94.885
91.537
88.002
84.293
80.423
76.408
72.263
68.004
63.648
59.213
54.715
50.174
45.607
41.031
36.466
31.927
27.432
22.998
18.64
14.374
10.213
6.17
2.258
-1.512
-5.13
-8.589
-11.88
-14.998
-17.94
-20.701
-23.28
-25.677
-27.893
-29.932
-31.796
-33.493
-35.027
-36.409
-37.647
-38.752
-39.737
-40.614
-41.397
-42.102
-42.745
-43.341
-43.909
-44.465
-45.027
-45.615
-46.245
-46.937
-47.708
-48.577
-49.561
-50.676
-51.94
-53.366
-54.97
-56.764
-58.76
-60.969
-63.402
-66.065
-68.965
-72.108
-75.497
-79.134
-83.019
-87.15
-91.522
-96.131
-100.968
-106.025
-111.29
-116.75
-122.39
-128.194
-134.144
-140.22
-146.401
-152.664
-158.984
-165.337
-171.694
-178.029
-184.313
-190.519
-196.616
-202.577
-208.374
-213.977
-219.359
-224.494
-229.353
-233.912
-238.146
-242.032
-245.547
-248.672
-251.389
-253.681
-255.535
-256.94
-257.886
-258.367
-258.377
-257.915
-256.981
-255.579
-253.713
-251.393
-248.628
-245.432
-241.824
-237.823
-233.452
-228.736
-223.701
-218.376
-212.792
-206.977
-200.963
-194.778
-188.452
-182.014
-175.496
-168.93
-162.347
-155.781
-149.262
-142.823
-136.493
-130.298
-124.263
-118.409
-112.752
-107.309
-102.096
-97.13
-92.436
-88.031
-83.927
-80.131
-76.641
-73.448
-70.539
-67.89
-65.467
-63.238
-61.167
-59.22
-57.381
-55.633
-53.96
-52.341
-50.735
-49.107
-47.441
-45.735
-44.003
-42.261
-40.526
-38.828
-37.222
-35.777
-34.564
-33.647
-33.059
-32.821
-32.938
-33.433
-34.383
-35.789
-37.559
-39.516
-41.348
-42.777
-43.636
-43.672
-42.56
-40.19
-36.586
-32.012
-27.175
-22.658
-18.805
-16.107
-14.849
-14.808
-15.609
-16.417
-15.661
-12.034
-4.422
8.665
28.251
54.433
87.053
124.675
164.285
203.991
242.02
276.568
307.563
332.356
346.052
344.503
323.151
282.515
229.103
169.276
108.967
49.728
-11.367
-74.464
-135.784
-187.57
-221.59
-233.637
-225.237
-202.923
-172.429
-139.604
-109.39
-83.446
-65.143
-55.234
-51.019
-51.285
-53.151
-55.016
-58.426
-63.333
-69.418
-76.194
-81.664
-84.789
-85.582
-84.221
-81.403
-77.974
-74.539
-71.52
-69.271
-67.916
-67.399
-67.637
-68.443
-69.527
-70.592
-71.443
-71.986
-72.21
-72.172
-71.902
-71.429
-70.803
-70.094
-69.36
-68.632
-67.935
-67.277
-66.685
-66.209
-65.884
-65.735
-65.777
-66.008
-66.424
-67.024
-67.8
-68.738
-69.827
-71.054
-72.409
-73.885
-75.472
-77.154
-78.912
-80.725
-82.57
-84.431
-86.289
-88.13
-89.939
-91.705
-93.418
-95.07
-96.65
-98.15
-99.557
-100.861
-102.054
-103.126
-104.072
-104.884
-105.558
-106.092
-106.483
-106.731
-106.836
-106.799
-106.619
-106.3
-105.843
-105.251
-104.528
-103.677
-102.703
-101.609
-100.403
-99.089
-97.673
-96.162
-94.56
-92.873
-91.107
-89.267
-87.359
-85.387
-83.356
-81.27
-79.133
-76.95
-74.723
-72.456
-70.15
-67.81
-65.436
-63.03
-60.595
-58.13
-55.638
-53.118
-50.572
-48.001
-45.405
-42.786
-40.146
-37.485
-34.805
-32.11
-29.399
-26.677
-23.945
-21.208
-18.467
-15.727
-12.992
-10.267
-7.555
-4.863
-2.196
0.441
3.04
5.597
8.103
10.553
12.94
15.256
17.494
19.648
21.711
23.675
25.535
27.283
28.913
30.419
31.796
33.039
34.143
35.104
35.918
36.582
37.093
37.45
37.651
37.695
37.582
37.311
36.885
36.304
35.571
34.689
33.663
32.495
31.192
29.759
28.203
26.531
24.75
22.869
20.896
18.841
16.713
14.524
12.283
10.003
7.695
5.371
3.044
0.726
-1.569
-3.83
-6.043
-8.194
-10.271
-12.261
-14.15
-15.924
-17.57
-19.074
-20.425
-21.609
-22.614
-23.428
-24.041
-24.443
-24.622
-24.571
-24.28
-23.741
-22.948
-21.893
-20.57
-18.977
-17.108
-14.962
-12.539
-9.84
-6.865
-3.618
-0.103
3.675
7.711
11.996
16.523
21.282
26.263
31.455
36.842
42.411
48.144
54.025
60.035
66.155
72.366
78.648
84.98
91.341
97.71
104.065
110.382
116.637
122.806
128.862
134.779
140.533
146.1
151.456
156.581
161.455
166.06
170.381
174.404
178.111
181.489
184.52
187.189
189.484
191.393
192.904
194.012
194.711
194.999
194.882
194.36
193.438
192.114
190.38
188.234
185.679
182.726
179.388
175.684
171.639
167.282
162.657
157.81
152.788
147.631
142.364
137.006
131.575
126.1
120.619
115.162
109.744
104.355
98.998
93.671
88.38
83.126
77.854
72.491
66.956
61.17
55.09
48.709
41.998
34.894
27.413
19.633
11.729
4.014
-3.273
-9.975
-15.892
-20.859
-24.857
-27.967
-30.477
-32.927
-35.73
-39.211
-43.784
-49.537
-56.109
-62.876
-68.834
-72.723
-73.44
-69.813
-60.435
-44.459
-21.91
6.556
39.63
75.6
112.572
148.114
179.121
202.736
217.029
220.666
212.769
193.176
162.409
122.477
77.161
29.528
-18.398
-65.35
-111.192
-153.029
-186.261
-207.266
-212.332
-202.466
-182.805
-158.168
-134.622
-115.552
-100.269
-88.476
-79.484
-73.192
-71.306
-74.174
-80.66
-89.252
-98.141
-106.281
-113.547
-119.731
-124.351
-127.232
-128.541
-128.838
-128.963
-129.336
-129.962
-130.807
-131.863
-133.148
-134.685
-136.316
-137.712
-138.676
-139.13
-139.064
-138.536
-137.555
-136.089
-134.144
-131.757
-128.981
-125.874
-122.48
-118.819
-114.908
-110.756
-106.377
-101.789
-97.001
-92.02
-86.845
-81.468
-75.894
-70.142
-64.23
-58.18
-52.008
-45.721
-39.33
-32.849
-26.292
-19.675
-13.011
-6.311
0.41
7.13
13.828
20.479
27.063
33.561
39.955
46.228
52.362
58.34
64.145
69.762
75.176
80.37
85.326
90.029
94.462
98.611
102.462
106.003
109.223
112.111
114.658
116.858
118.702
120.185
121.302
122.05
122.426
122.427
122.054
121.306
120.185
118.695
116.838
114.621
112.05
109.131
105.872
102.283
98.373
94.154
89.637
84.834
79.759
74.426
68.851
63.05
57.039
50.835
44.456
37.919
31.243
24.445
17.543
10.557
3.503
-3.6
-10.734
-17.88
-25.023
-32.143
-39.225
-46.252
-53.208
-60.077
-66.843
-73.494
-80.013
-86.388
-92.606
-98.655
-104.523
-110.2
-115.676
-120.942
-125.99
-130.813
-135.404
-139.757
-143.869
-147.733
-151.349
-154.712
-157.823
-160.679
-163.282
-165.631
-167.73
-169.58
-171.183
-172.545
-173.668
-174.558
-175.22
-175.661
-175.887
-175.906
-175.725
-175.352
-174.797
-174.069
-173.177
-172.131
-170.94
-169.616
-168.166
-166.603
-164.935
-163.172
-161.325
-159.402
-157.414
-155.368
-153.275
-151.141
-148.975
-146.783
-144.571
-142.345
-140.111
-137.872
-135.633
-133.396
-131.164
-128.939
-126.721
-124.512
-122.308
-120.11
-117.913
-115.716
-113.513
-111.299
-109.07
-106.82
-104.542
-102.232
-99.881
-97.484
-95.033
-92.522
-89.943
-87.288
-84.551
-81.725
-78.803
-75.779
-72.648
-69.406
-66.049
-62.573
-58.977
-55.259
-51.417
-47.453
-43.365
-39.156
-34.828
-30.386
-25.834
-21.18
-16.432
-11.599
-6.691
-1.72
3.303
8.367
13.458
18.564
23.674
28.772
33.844
38.875
43.85
48.753
53.567
58.276
62.862
67.311
71.609
75.742
79.698
83.468
87.04
90.407
93.563
96.5
99.212
101.693
103.937
105.942
107.707
109.233
110.521
111.574
112.398
112.997
113.381
113.553
113.514
113.264
112.794
112.103
111.195
110.071
108.741
107.224
105.545
103.74
101.855
99.924
97.968
96.011
94.058
92.124
90.23
88.382
86.608
84.935
83.389
82.013
80.831
79.815
78.91
78.022
77.024
75.842
74.4
72.581
70.378
67.841
65.075
62.333
59.801
57.527
55.636
54.275
53.347
52.701
52.018
50.647
48.212
44.551
39.332
32.367
23.883
14.336
4.714
-3.401
-8.794
-10.346
-6.591
3.644
21.011
45.102
74.044
105.542
137.962
171.222
205.661
239.597
268.942
286.69
285.848
264.025
223.712
172.013
117.059
64.051
15.021
-30.294
-71.446
-106.482
-132.94
-148.55
-152.882
-146.975
-132.144
-110.308
-84.022
-55.876
-28.489
-4.109
16.088
31.439
41.299
45.63
45.192
41.129
35.003
28.405
22.171
16.861
13.164
11.372
11.418
13.036
15.51
18.009
20.181
21.845
22.79
23.02
22.551
21.411
19.887
18.312
16.833
15.526
14.407
13.407
12.515
11.737
11.018
10.294
9.516
8.64
7.652
6.553
5.336
3.999
2.534
0.939
-0.778
-2.605
-4.525
-6.518
-8.573
-10.687
-12.853
-15.065
-17.316
-19.594
-21.894
-24.205
-26.516
-28.819
-31.102
-33.353
-35.567
-37.738
-39.862
-41.938
-43.965
-45.937
-47.849
-49.698
-51.478
-53.185
-54.815
-56.363
-57.825
-59.2
-60.486
-61.684
-62.791
-63.809
-64.734
-65.568
-66.308
-66.953
-67.504
-67.958
-68.316
-68.576
-68.74
-68.808
-68.78
-68.658
-68.442
-68.134
-67.735
-67.245
-66.667
-66.002
-65.25
-64.415
-63.497
-62.499
-61.423
-60.273
-59.051
-57.761
-56.407
-54.992
-53.522
-52
-50.433
-48.824
-47.181
-45.51
-43.817
-42.11
-40.396
-38.682
-36.976
-35.285
-33.618
-31.981
-30.382
-28.827
-27.324
-25.879
-24.499
-23.19
-21.958
-20.808
-19.744
-18.771
-17.893
-17.112
-16.43
-15.848
-15.365
-14.982
-14.695
-14.501
-14.396
-14.373
-14.425
-14.545
-14.722
-14.946
-15.206
-15.489
-15.781
-16.07
-16.341
-16.58
-16.772
-16.902
-16.956
-16.92
-16.779
-16.52
-16.129
-15.595
-14.904
-14.046
-13.011
-11.789
-10.373
-8.756
-6.934
-4.901
-2.657
-0.2
2.467
5.341
8.417
11.687
15.143
18.773
22.564
26.503
30.572
34.755
39.033
43.388
47.799
52.245
56.707
61.163
65.592
69.975
74.29
78.52
82.645
86.647
90.51
94.218
97.757
101.113
104.275
107.233
109.978
112.504
114.807
116.884
118.735
120.363
121.772
122.97
123.965
124.769
125.394
125.857
126.173
126.36
126.438
126.428
126.35
126.227
126.081
125.934
125.808
125.725
125.706
125.771
125.938
126.226
126.65
127.226
127.97
128.893
130.008
131.324
132.849
134.589
136.549
138.727
141.121
143.725
146.532
149.532
152.713
156.062
159.564
163.203
166.962
170.826
174.774
178.786
182.839
186.91
190.976
195.013
198.999
202.909
206.722
210.414
213.964
217.356
220.566
223.573
226.355
228.883
231.137
233.102
234.762
236.109
237.139
237.854
238.264
238.395
238.269
237.919
237.375
236.662
235.813
234.848
233.79
232.672
231.506
230.303
229.062
227.774
226.439
225.05
223.564
221.913
220.001
217.707
214.948
211.633
207.62
202.877
197.438
191.397
184.995
178.436
171.814
165.312
159.191
153.511
148.072
142.503
136.327
129.246
121.848
114.655
107.127
99.395
90.843
81.169
73.4
69.351
71.058
81.077
97.517
118.848
143.42
168.115
193.221
219.262
246.096
273.622
298.91
319.606
335.342
346.503
355.254
360.536
357.552
342.508
312.332
268.588
217.06
160.962
102.616
43.897
-13.152
-61.541
-93.976
-107.106
-101.638
-84.452
-63.338
-42.574
-23.938
-6.383
11.106
27.311
40.158
47.644
48.809
44.036
34.722
22.602
9.187
-3.966
-15.588
-25.009
-31.823
-35.965
-37.842
-37.992
-37.072
-35.968
-35.3
-35.339
-36.216
-37.854
-40.092
-42.812
-45.793
-48.711
-51.366
-53.675
-55.621
-57.282
-58.71
-59.906
-60.899
-61.74
-62.463
-63.104
-63.682
-64.198
-64.654
-65.058
-65.417
-65.74
-66.027
-66.272
-66.465
-66.591
-66.645
-66.63
-66.547
-66.395
-66.172
-65.874
-65.494
-65.026
-64.463
-63.797
-63.02
-62.124
-61.105
-59.961
-58.691
-57.299
-55.785
-54.148
-52.388
-50.505
-48.499
-46.372
-44.127
-41.764
-39.29
-36.709
-34.029
-31.257
-28.402
-25.471
-22.473
-19.416
-16.309
-13.16
-9.977
-6.771
-3.55
-0.324
2.898
6.106
9.289
12.44
15.547
18.603
21.598
24.524
27.373
30.139
32.813
35.39
37.863
40.228
42.479
44.614
46.63
48.523
50.293
51.939
53.462
54.863
56.143
57.304
58.349
59.281
60.104
60.821
61.438
61.959
62.39
62.735
63.002
63.195
63.321
63.388
63.401
63.368
63.295
63.19
63.059
62.91
62.75
62.587
62.426
62.274
62.139
62.027
61.943
61.894
61.884
61.919
62.004
62.143
62.34
62.598
62.922
63.314
63.775
64.308
64.915
65.595
66.348
67.175
68.075
69.044
70.082
71.186
72.351
73.574
74.849
76.17
77.532
78.927
80.347
81.785
83.229
84.672
86.103
87.511
88.884
90.212
91.481
92.679
93.794
94.813
95.723
96.512
97.167
97.676
98.026
98.207
98.207
98.015
97.623
97.021
96.201
95.156
93.881
92.37
90.62
88.629
86.395
83.918
81.201
78.244
75.052
71.632
67.989
64.132
60.072
55.819
51.387
46.79
42.044
37.165
32.169
27.074
21.899
16.663
11.385
6.086
0.784
-4.5
-9.746
-14.933
-20.042
-25.054
-29.952
-34.72
-39.342
-43.803
-48.091
-52.192
-56.096
-59.793
-63.274
-66.529
-69.554
-72.343
-74.895
-77.209
-79.286
-81.133
-82.754
-84.159
-85.358
-86.359
-87.173
-87.81
-88.28
-88.596
-88.768
-88.807
-88.726
-88.539
-88.263
-87.915
-87.508
-87.058
-86.575
-86.071
-85.561
-85.055
-84.558
-84.08
-83.631
-83.23
-82.903
-82.668
-82.537
-82.518
-82.617
-82.836
-83.179
-83.632
-84.164
-84.747
-85.349
-85.955
-86.572
-87.191
-87.799
-88.376
-88.89
-89.335
-89.729
-90.074
-90.357
-90.568
-90.7
-90.812
-91.024
-91.442
-92.181
-93.307
-94.864
-96.962
-99.654
-102.907
-106.631
-110.569
-114.435
-118.097
-121.383
-124.064
-126.175
-127.828
-129.264
-131.169
-134.087
-138.332
-144.421
-152.673
-162.802
-174.28
-186.035
-196.282
-203.557
-206.478
-203.313
-192.769
-174.327
-148.084
-115.211
-77.846
-38.144
1.223
36.948
65.904
85.232
92.573
86.511
66.484
33.197
-10.784
-62.41
-119.111
-180.176
-246.178
-315.212
-381.792
-436.499
-470.032
-478.774
-465.68
-439.644
-410.11
-382.787
-359.456
-338.712
-319.474
-302.376
-289.102
-281.622
-280.404
-284.397
-291.898
-300.792
-309.411
-316.766
-321.999
-324.636
-324.646
-322.254
-318.028
-312.815
-307.398
-302.279
-297.782
-294.021
-290.931
-288.397
-286.237
-284.176
-281.914
-279.279
-276.202
-272.685
-268.801
-264.603
-260.122
-255.412
-250.544
-245.57
-240.537
-235.482
-230.429
-225.417
-220.488
-215.667
-210.981
-206.445
-202.061
-197.829
-193.747
-189.811
-186.021
-182.381
-178.892
-175.556
-172.374
-169.341
-166.449
-163.687
-161.042
-158.502
-156.055
-153.69
-151.398
-149.172
-147.006
-144.893
-142.826
-140.796
-138.792
-136.803
-134.819
-132.828
-130.822
-128.79
-126.726
-124.624
-122.477
-120.284
-118.041
-115.744
-113.392
-110.984
-108.518
-105.994
-103.414
-100.778
-98.088
-95.349
-92.563
-89.737
-86.875
-83.985
-81.073
-78.147
-75.214
-72.284
-69.364
-66.465
-63.595
-60.765
-57.984
-55.262
-52.609
-50.036
-47.553
-45.168
-42.893
-40.734
-38.7
-36.799
-35.038
-33.424
-31.961
-30.656
-29.514
-28.538
-27.732
-27.1
-26.643
-26.363
-26.262
-26.339
-26.594
-27.025
-27.631
-28.408
-29.355
-30.465
-31.736
-33.161
-34.735
-36.451
-38.302
-40.281
-42.378
-44.585
-46.893
-49.293
-51.773
-54.325
-56.937
-59.599
-62.3
-65.029
-67.776
-70.529
-73.279
-76.013
-78.722
-81.396
-84.023
-86.595
-89.103
-91.537
-93.889
-96.151
-98.317
-100.379
-102.332
-104.17
-105.888
-107.482
-108.949
-110.286
-111.491
-112.563
-113.502
-114.307
-114.981
-115.524
-115.94
-116.231
-116.401
-116.454
-116.393
-116.224
-115.952
-115.582
-115.119
-114.57
-113.94
-113.235
-112.46
-111.621
-110.722
-109.767
-108.762
-107.71
-106.614
-105.478
-104.303
-103.092
-101.848
-100.573
-99.265
-97.927
-96.557
-95.154
-93.717
-92.243
-90.729
-89.172
-87.568
-85.914
-84.206
-82.441
-80.614
-78.721
-76.759
-74.724
-72.613
-70.421
-68.145
-65.782
-63.332
-60.794
-58.168
-55.457
-52.663
-49.789
-46.839
-43.819
-40.733
-37.589
-34.391
-31.148
-27.867
-24.559
-21.234
-17.904
-14.582
-11.282
-8.019
-4.81
-1.669
1.392
4.358
7.218
9.959
12.571
15.046
17.375
19.546
21.551
23.379
25.022
26.476
27.739
28.81
29.691
30.383
30.892
31.232
31.408
31.425
31.284
30.978
30.513
29.903
29.163
28.306
27.353
26.327
25.27
24.24
23.284
22.434
21.713
21.132
20.713
20.492
20.505
20.78
21.331
22.166
23.306
24.789
26.636
28.833
31.306
33.939
36.638
39.34
42.016
44.623
47.079
49.366
51.546
53.774
56.318
59.365
62.979
67.279
72.373
78.193
84.612
91.302
97.657
103.284
107.939
111.281
113.276
114.299
114.951
116.286
119.637
126.01
136.464
152.197
173.877
201.606
234.875
272.376
312.554
353.847
394.065
430.592
460.984
482.946
494.784
495.479
484.165
461.155
428.485
388.497
343.423
294.082
240.071
183.298
128.859
84.15
56.402
49.09
59.817
82.886
112.445
142.119
169.113
192.577
210.695
225.1
236.491
244.318
249.987
252.812
252.501
250.336
246.841
243.184
240.515
239.307
239.867
242.033
245.342
249.14
252.704
255.66
257.807
258.953
259.08
258.207
256.424
254.064
251.503
248.948
246.507
244.209
242.016
239.941
238.003
236.156
234.33
232.474
230.552
228.566
226.53
224.429
222.233
219.898
217.392
214.702
211.826
208.768
205.531
202.113
198.522
194.772
190.879
186.854
182.705
178.436
174.054
169.574
165.01
160.382
155.704
150.989
146.245
141.483
136.711
131.936
127.165
122.401
117.651
112.924
108.227
103.571
98.965
94.416
89.935
85.529
81.206
76.974
72.839
68.808
64.888
61.086
57.408
53.861
50.45
47.181
44.058
41.087
38.269
35.609
33.107
30.766
28.588
26.573
24.723
23.037
21.515
20.157
18.961
17.926
17.049
16.328
15.757
15.332
15.049
14.9
14.881
14.981
15.195
15.513
15.926
16.424
16.997
17.635
18.327
19.06
19.825
20.608
21.398
22.184
22.954
23.697
24.4
25.052
25.643
26.16
26.593
26.931
27.162
27.277
27.264
27.114
26.819
26.368
25.754
24.97
24.009
22.866
21.535
20.014
18.299
16.39
14.285
11.985
9.493
6.811
3.943
0.895
-2.328
-5.718
-9.268
-12.969
-16.811
-20.784
-24.877
-29.077
-33.372
-37.749
-42.192
-46.686
-51.216
-55.764
-60.314
-64.849
-69.349
-73.796
-78.172
-82.459
-86.638
-90.691
-94.599
-98.347
-101.916
-105.291
-108.458
-111.401
-114.107
-116.564
-118.761
-120.689
-122.337
-123.699
-124.768
-125.54
-126.011
-126.177
-126.04
-125.597
-124.852
-123.806
-122.466
-120.837
-118.928
-116.746
-114.305
-111.615
-108.692
-105.55
-102.205
-98.675
-94.977
-91.13
-87.153
-83.066
-78.886
-74.636
-70.333
-66
-61.654
-57.316
-53.005
-48.737
-44.531
-40.404
-36.371
-32.445
-28.642
-24.972
-21.45
-18.085
-14.889
-11.871
-9.038
-6.396
-3.95
-1.703
0.344
2.192
3.843
5.301
6.569
7.651
8.554
9.284
9.845
10.245
10.489
10.586
10.546
10.379
10.097
9.709
9.226
8.662
8.027
7.335
6.596
5.816
5.005
4.173
3.33
2.487
1.652
0.828
0.02
-0.763
-1.519
-2.244
-2.945
-3.639
-4.339
-5.052
-5.789
-6.555
-7.356
-8.2
-9.08
-9.973
-10.857
-11.703
-12.497
-13.247
-13.949
-14.6
-15.198
-15.717
-16.147
-16.496
-16.741
-16.866
-16.875
-16.777
-16.642
-16.595
-16.743
-17.223
-18.185
-19.683
-21.717
-24.201
-26.914
-29.675
-32.364
-34.819
-36.872
-38.528
-40.002
-41.778
-44.58
-49.013
-55.383
-63.861
-74.621
-87.541
-101.991
-116.871
-130.526
-141.187
-147.552
-148.544
-143.083
-130.498
-110.625
-83.844
-51.403
-15.629
20.636
54.743
84.616
110.603
134.335
155.41
170.644
172.965
155.417
116.793
61.427
-1.448
-64.229
-125.286
-184.374
-242.609
-297.017
-337.951
-359.075
-355.583
-326.651
-281.348
-228.146
-176.538
-137.663
-113.83
-104.144
-105.111
-108.35
-109.93
-109.282
-106.962
-106.089
-107.695
-110.635
-113.485
-114.435
-112.818
-109.114
-104.046
-98.536
-93.305
-88.697
-84.959
-82.181
-80.3
-79.192
-78.674
-78.499
-78.385
-78.167
-77.762
-77.147
-76.367
-75.457
-74.428
-73.315
-72.167
-71.014
-69.882
-68.794
-67.752
-66.782
-65.899
-65.11
-64.419
-63.821
-63.297
-62.831
-62.402
-61.987
-61.571
-61.143
-60.689
-60.2
-59.661
-59.058
-58.372
-57.585
-56.677
-55.63
-54.429
-53.06
-51.514
-49.785
-47.868
-45.762
-43.463
-40.967
-38.273
-35.376
-32.277
-28.974
-25.47
-21.768
-17.873
-13.793
-9.537
-5.116
-0.543
4.173
9.017
13.976
19.037
24.186
29.409
34.689
40.011
45.361
50.72
56.073
61.404
66.696
71.933
77.1
82.183
87.166
92.037
96.782
101.389
105.847
110.146
114.275
118.227
121.994
125.571
128.953
132.137
135.12
137.903
140.486
142.869
145.054
147.046
148.845
150.458
151.888
153.14
154.22
155.132
155.882
156.477
156.922
157.222
157.384
157.412
157.312
157.089
156.747
156.291
155.725
155.053
154.278
153.403
152.43
151.361
150.197
148.938
147.585
146.135
144.588
142.943
141.197
139.349
137.397
135.338
133.171
130.894
128.506
126.005
123.391
120.664
117.826
114.877
111.819
108.657
105.394
102.035
98.585
95.051
91.44
87.758
84.014
80.217
76.376
72.501
68.603
64.694
60.784
56.889
53.02
49.192
45.418
41.715
38.096
34.577
31.172
27.897
24.766
21.794
18.996
16.384
13.974
11.776
9.803
8.065
6.573
5.334
4.357
3.648
3.213
3.059
3.188
3.607
4.318
5.324
6.627
8.228
10.127
12.325
14.819
17.607
20.686
24.051
27.699
31.624
35.82
40.279
44.995
49.958
55.161
60.593
66.243
72.099
78.148
84.379
90.78
97.336
104.035
110.864
117.808
124.856
131.992
139.201
146.467
153.772
161.099
168.429
175.744
183.023
190.247
197.396
204.45
211.39
218.195
224.845
231.318
237.592
243.646
249.457
255.004
260.263
265.212
269.834
274.109
278.022
281.559
284.704
287.446
289.776
291.682
293.155
294.184
294.759
294.872
294.521
293.703
292.419
290.671
288.462
285.802
282.701
279.167
275.207
270.82
266.005
260.766
255.118
249.076
242.653
235.873
228.764
221.371
213.751
205.951
198.005
189.938
181.769
173.525
165.242
156.957
148.701
140.502
132.386
124.396
116.588
108.99
101.59
94.326
87.103
79.844
72.512
65.066
57.426
49.572
41.551
33.484
25.642
18.271
11.483
5.431
0.291
-3.989
-7.568
-10.782
-14.359
-18.905
-24.791
-32.511
-42.372
-54.105
-67.165
-80.458
-92.174
-100.766
-104.807
-102.617
-93.022
-75.613
-50.572
-19.123
16.661
54.76
92.614
127.11
155.511
175.291
184.513
182.244
167.928
142.044
106.934
65.295
19.453
-29.631
-82.453
-137.478
-189.823
-231.773
-256.052
-260.319
-247.775
-226.135
-203.056
-182.707
-166.315
-152.44
-139.553
-127.615
-117.188
-109.12
-103.637
-100.054
-97.278
-94.281
-90.613
-86.281
-81.501
-76.601
-71.897
-67.69
-64.366
-62.305
-61.658
-62.401
-64.386
-67.339
-71.004
-75.182
-79.672
-84.31
-88.99
-93.622
-98.164
-102.613
-106.942
-111.115
-115.087
-118.779
-122.148
-125.201
-127.966
-130.519
-132.966
-135.387
-137.858
-140.445
-143.184
-146.097
-149.198
-152.469
-155.894
-159.464
-163.177
-167.051
-171.102
-175.32
-179.688
-184.17
-188.714
-193.275
-197.81
-202.272
-206.626
-210.845
-214.904
-218.793
-222.508
-226.04
-229.374
-232.493
-235.374
-237.998
-240.351
-242.419
-244.192
-245.66
-246.816
-247.655
-248.174
-248.369
-248.235
-247.768
-246.961
-245.81
-244.314
-242.472
-240.288
-237.766
-234.912
-231.734
-228.244
-224.454
-220.377
-216.026
-211.416
-206.562
-201.483
-196.195
-190.718
-185.071
-179.275
-173.351
-167.322
-161.212
-155.043
-148.84
-142.626
-136.424
-130.26
-124.155
-118.132
-112.212
-106.419
-100.771
-95.289
-89.992
-84.898
-80.023
-75.384
-70.994
-66.866
-63.01
-59.437
-56.155
-53.169
-50.484
-48.105
-46.033
-44.269
-42.812
-41.659
-40.806
-40.248
-39.977
-39.984
-40.258
-40.789
-41.563
-42.566
-43.783
-45.197
-46.792
-48.55
-50.453
-52.48
-54.613
-56.832
-59.116
-61.445
-63.8
-66.16
-68.506
-70.818
-73.08
-75.271
-77.376
-79.378
-81.262
-83.013
-84.618
-86.065
-87.342
-88.441
-89.354
-90.074
-90.596
-90.917
-91.034
-90.948
-90.66
-90.171
-89.487
-88.611
-87.552
-86.316
-84.914
-83.355
-81.651
-79.814
-77.858
-75.794
-73.638
-71.405
-69.107
-66.761
-64.381
-61.982
-59.577
-57.182
-54.809
-52.471
-50.181
-47.949
-45.786
-43.7
-41.699
-39.789
-37.974
-36.259
-34.645
-33.133
-31.723
-30.411
-29.196
-28.073
-27.036
-26.078
-25.191
-24.366
-23.593
-22.862
-22.163
-21.482
-20.809
-20.131
-19.437
-18.714
-17.952
-17.137
-16.259
-15.308
-14.275
-13.149
-11.923
-10.589
-9.143
-7.581
-5.901
-4.103
-2.187
-0.157
1.98
4.217
6.544
8.952
11.431
13.968
16.55
19.161
21.787
24.412
27.022
29.596
32.114
34.553
36.892
39.12
41.226
43.194
45.01
46.661
48.135
49.425
50.529
51.426
52.101
52.543
52.741
52.706
52.451
51.984
51.316
50.446
49.369
48.098
46.641
44.995
43.161
41.13
38.892
36.486
33.95
31.301
28.563
25.732
22.804
19.812
16.792
13.774
10.806
7.914
5.116
2.512
0.201
-1.805
-3.458
-4.773
-5.805
-6.445
-6.58
-6.255
-5.497
-4.197
-2.351
0.108
3.33
7.093
11.219
15.827
20.926
26.33
31.959
37.626
43.005
48.143
52.837
56.368
58.238
58.215
56.118
51.968
45.918
38.072
29.158
20.669
14.008
10.274
10.372
15.113
25.385
41.827
64.22
91.372
121.76
153.962
186.549
217.636
244.684
265.172
277.179
279.438
271.133
251.738
220.984
180.272
133.045
82.072
29.568
-23.111
-76.485
-127.485
-170.133
-199.67
-211.074
-204.949
-187.882
-165.66
-144.561
-127.839
-114.089
-102.497
-92.214
-82.751
-75.115
-69.373
-64.683
-60.186
-54.901
-48.374
-40.773
-32.398
-23.577
-14.679
-6.082
1.816
8.652
14.225
18.484
21.464
23.259
23.992
23.795
22.83
21.308
19.397
17.242
14.995
12.747
10.569
8.524
6.647
4.967
3.538
2.42
1.651
1.253
1.218
1.521
2.135
3.001
4.053
5.201
6.34
7.394
8.319
9.089
9.689
10.11
10.324
10.308
10.057
9.567
8.843
7.892
6.717
5.336
3.781
2.099
0.346
-1.436
-3.22
-4.986
-6.717
-8.397
-10.009
-11.541
-12.99
-14.348
-15.606
-16.753
-17.774
-18.657
-19.4
-20.003
-20.467
-20.792
-20.975
-21.015
-20.911
-20.663
-20.271
-19.731
-19.04
-18.199
-17.211
-16.082
-14.82
-13.434
-11.932
-10.326
-8.629
-6.854
-5.016
-3.126
-1.2
0.75
2.707
4.657
6.584
8.473
10.31
12.079
13.766
15.355
16.834
18.189
19.41
20.486
21.405
22.16
22.742
23.145
23.364
23.394
23.233
22.879
22.333
21.597
20.675
19.573
18.298
16.857
15.261
13.521
11.648
9.655
7.556
5.365
3.096
0.765
-1.614
-4.024
-6.449
-8.875
-11.286
-13.667
-16.003
-18.281
-20.488
-22.609
-24.635
-26.555
-28.357
-30.035
-31.58
-32.987
-34.251
-35.368
-36.337
-37.159
-37.833
-38.364
-38.756
-39.015
-39.147
-39.164
-39.073
-38.889
-38.623
-38.291
-37.908
-37.489
-37.051
-36.612
-36.188
-35.798
-35.458
-35.185
-34.999
-34.914
-34.949
-35.12
-35.443
-35.934
-36.607
-37.477
-38.556
-39.858
-41.392
-43.167
-45.193
-47.476
-50.022
-52.835
-55.917
-59.268
-62.888
-66.773
-70.919
-75.315
-79.95
-84.811
-89.884
-95.152
-100.598
-106.203
-111.949
-117.815
-123.783
-129.833
-135.944
-142.091
-148.25
-154.395
-160.497
-166.529
-172.461
-178.264
-183.904
-189.356
-194.591
-199.585
-204.308
-208.732
-212.823
-216.555
-219.909
-222.868
-225.421
-227.559
-229.283
-230.601
-231.534
-232.101
-232.321
-232.211
-231.781
-231.043
-230.006
-228.678
-227.073
-225.188
-223.007
-220.509
-217.662
-214.429
-210.776
-206.655
-202.009
-196.798
-190.991
-184.56
-177.5
-169.814
-161.524
-152.669
-143.294
-133.46
-123.272
-112.86
-102.388
-92.033
-81.948
-72.286
-63.204
-54.826
-47.267
-40.64
-35.02
-30.468
-27.025
-24.701
-23.506
-23.437
-24.421
-26.328
-28.972
-32.132
-35.63
-39.307
-42.999
-46.572
-49.895
-52.834
-55.291
-57.18
-58.404
-58.881
-58.527
-57.24
-54.995
-51.822
-47.798
-43.058
-37.714
-31.863
-25.623
-19.094
-12.358
-5.535
1.256
7.974
14.593
21.148
27.747
34.401
41.085
47.874
54.852
61.949
68.929
75.339
80.603
84.407
86.647
87.162
85.904
83.2
79.789
76.851
75.662
77.062
81.608
90.029
103.009
120.72
142.677
167.818
195.039
223.547
252.624
280.439
304.148
322.11
333.573
339.087
340.459
336.643
325.188
304.079
270.633
224.537
167.461
102.722
36.87
-21.374
-62.784
-82.643
-81.783
-65.755
-43.781
-21.873
-2.445
14.133
30.072
46.053
61.079
73.879
82.526
86.458
86.561
84.253
81.322
78.838
77.14
76.569
77.48
79.984
83.966
88.879
93.831
98.323
102.213
105.411
107.913
109.728
110.886
111.631
112.355
113.307
114.587
116.222
118.164
120.403
122.962
125.811
128.885
132.123
135.476
138.924
142.465
146.079
149.724
153.353
156.923
160.415
163.817
167.127
170.346
173.472
176.508
179.462
182.342
185.153
187.902
190.588
193.214
195.785
198.313
200.808
203.283
205.743
208.193
210.636
213.076
215.512
217.946
220.375
222.797
225.213
227.623
230.029
232.43
234.824
237.209
239.583
241.943
244.283
246.598
248.881
251.124
253.321
255.465
257.549
259.563
261.501
263.353
265.111
266.767
268.311
269.734
271.027
272.182
273.189
274.041
274.729
275.247
275.588
275.744
275.712
275.487
275.064
274.44
273.613
272.582
271.345
269.905
268.262
266.419
264.379
262.149
259.734
257.141
254.379
251.456
248.382
245.168
241.825
238.365
234.8
231.142
227.407
223.606
219.754
215.865
211.953
208.032
204.114
200.214
196.342
192.512
188.734
185.019
181.375
177.81
174.333
170.948
167.662
164.476
161.395
158.418
155.544
152.773
150.1
147.52
145.028
142.616
140.275
137.996
135.766
133.575
131.408
129.253
127.095
124.917
122.706
120.444
118.116
115.705
113.194
110.569
107.812
104.911
101.85
98.616
95.197
91.581
87.76
83.724
79.465
74.979
70.262
65.31
60.123
54.704
49.054
43.179
37.087
30.787
24.289
17.607
10.755
3.749
-3.393
-10.652
-18.008
-25.44
-32.925
-40.441
-47.962
-55.463
-62.92
-70.307
-77.597
-84.764
-91.784
-98.629
-105.276
-111.701
-117.881
-123.793
-129.416
-134.73
-139.716
-144.357
-148.638
-152.545
-156.067
-159.194
-161.922
-164.245
-166.161
-167.672
-168.779
-169.489
-169.809
-169.747
-169.311
-168.513
-167.365
-165.883
-164.081
-161.977
-159.589
-156.941
-154.057
-150.966
-147.694
-144.268
-140.715
-137.062
-133.338
-129.571
-125.789
-122.013
-118.269
-114.587
-111.002
-107.55
-104.256
-101.137
-98.199
-95.453
-92.909
-90.577
-88.457
-86.543
-84.835
-83.347
-82.109
-81.154
-80.5
-80.149
-80.087
-80.298
-80.78
-81.546
-82.611
-83.975
-85.633
-87.589
-89.865
-92.497
-95.489
-98.806
-102.372
-106.109
-109.966
-113.915
-117.944
-122.035
-126.153
-130.253
-134.296
-138.259
-142.114
-145.808
-149.258
-152.365
-155.072
-157.378
-159.325
-160.949
-162.258
-163.232
-163.852
-164.101
-163.954
-163.394
-162.411
-160.998
-159.204
-157.123
-154.843
-152.492
-150.229
-148.087
-146.021
-143.945
-141.646
-138.966
-135.89
-132.353
-128.259
-123.746
-119.227
-115.253
-112.571
-111.883
-112.993
-115.744
-120.828
-127.943
-137.577
-150.016
-161.948
-170.884
-173.826
-167.064
-151.935
-130.26
-103.896
-76.097
-47.082
-17.224
11.52
37.342
57.402
69.443
72.563
65.987
49.368
23.722
-8.674
-45.156
-83.323
-122.76
-164.358
-206.863
-246.159
-276.387
-291.878
-290.159
-274.276
-249.934
-222.614
-198.41
-179.678
-166.329
-158.975
-155.006
-152.716
-151.62
-149.74
-147.485
-145.188
-142.415
-139.796
-136.956
-133.501
-129.755
-125.84
-122.13
-119.092
-116.782
-115.117
-113.986
-113.189
-112.571
-112.023
-111.442
-110.746
-109.894
-108.869
-107.667
-106.309
-104.81
-103.185
-101.442
-99.588
-97.64
-95.626
-93.587
-91.567
-89.609
-87.754
-86.026
-84.438
-82.994
-81.697
-80.54
-79.516
-78.613
-77.813
-77.108
-76.492
-75.957
-75.492
-75.083
-74.713
-74.364
-74.018
-73.659
-73.273
-72.844
-72.361
-71.815
-71.195
-70.494
-69.706
-68.821
-67.831
-66.727
-65.499
-64.141
-62.644
-61.003
-59.214
-57.272
-55.178
-52.93
-50.531
-47.983
-45.289
-42.454
-39.483
-36.382
-33.157
-29.818
-26.373
-22.832
-19.207
-15.508
-11.748
-7.942
-4.102
-0.243
3.62
7.475
11.306
15.098
18.837
22.508
26.098
29.592
32.977
36.239
39.367
42.349
45.175
47.835
50.321
52.626
54.745
56.672
58.405
59.939
61.275
62.413
63.354
64.099
64.654
65.023
65.212
65.228
65.079
64.773
64.321
63.732
63.018
62.189
61.258
60.237
59.138
57.974
56.758
55.503
54.221
52.925
51.627
50.339
49.071
47.835
46.641
45.497
44.413
43.397
42.456
41.597
40.824
40.143
39.557
39.068
38.678
38.389
38.199
38.107
38.114
38.215
38.408
38.689
39.055
39.5
40.019
40.608
41.259
41.966
42.724
43.526
44.365
45.234
46.128
47.041
47.965
48.896
49.827
50.754
51.671
52.572
53.455
54.314
55.146
55.948
56.717
57.451
58.148
58.806
59.426
60.006
60.546
61.047
61.509
61.932
62.317
62.667
62.981
63.262
63.51
63.729
63.919
64.083
64.221
64.336
64.429
64.502
64.554
64.586
64.6
64.594
64.57
64.526
64.464
64.382
64.28
64.157
64.014
63.849
63.661
63.448
63.208
62.939
62.64
62.309
61.943
61.54
61.098
60.615
60.089
59.52
58.904
58.24
57.526
56.758
55.937
55.059
54.124
53.131
52.079
50.97
49.803
48.581
47.306
45.977
44.596
43.164
41.682
40.149
38.565
36.93
35.247
33.516
31.743
29.931
28.086
26.214
24.321
22.414
