Name
Date of Birth,"Dec 28, 2003"
Recorded Date,2024-09-19 10:09:39 -0500
Classification,Sinus Rhythm
Symptoms,
Software Version,1.90
Device,"Watch4,4"
Sample Rate,512.711 hertz


Lead,Lead I
Unit,µV

-31.399
-31.15
-30.796
-30.402
-30.019
-29.675
-29.391
-29.161
-28.976
-28.837
-28.736
-28.664
-28.609
-28.55
-28.457
-28.313
-28.106
-27.821
-27.451
-26.986
-26.409
-25.708
-24.869
-23.881
-22.732
-21.415
-19.918
-18.236
-16.364
-14.302
-12.055
-9.626
-7.019
-4.235
-1.279
1.842
5.121
8.549
12.114
15.804
19.605
23.498
27.466
31.489
35.547
39.621
43.691
47.738
51.744
55.688
59.552
63.318
66.967
70.481
73.842
77.032
80.034
82.832
85.409
87.752
89.845
91.678
93.237
94.512
95.496
96.179
96.558
96.625
96.379
95.817
94.939
93.748
92.245
90.436
88.326
85.923
83.237
80.276
77.052
73.575
69.855
65.903
61.731
57.35
52.774
48.017
43.096
38.03
32.842
27.553
22.186
16.762
11.301
5.822
0.342
-5.122
-10.558
-15.952
-21.291
-26.56
-31.748
-36.845
-41.846
-46.746
-51.541
-56.227
-60.797
-65.24
-69.545
-73.697
-77.671
-81.437
-84.956
-88.191
-91.104
-93.668
-95.848
-97.578
-98.803
-99.494
-99.644
-99.278
-98.45
-97.172
-95.47
-93.528
-91.492
-89.318
-86.958
-84.257
-80.893
-77.292
-73.818
-69.701
-64.861
-58.456
-49.625
-40.77
-33.607
-29.981
-32.371
-39.283
-48.924
-59.553
-68.147
-74.076
-77.051
-76.223
-71.072
-59.917
-41.616
-16.363
14.865
50.118
87.49
125.239
161.065
192.313
216.446
231.359
235.743
228.753
210.315
181.599
144.301
100.816
52.217
-2.549
-62.49
-124.28
-180.974
-222.238
-242.363
-241.03
-222.827
-196.792
-168.999
-142.266
-117.371
-92.677
-68.208
-45.304
-25.324
-10.239
-0.754
3.932
4.97
3.985
2.535
1.373
1.022
2.114
4.919
9.368
15.173
21.617
27.865
33.534
38.449
42.417
45.461
47.662
49.106
50.104
51.022
52.02
53.171
54.502
55.948
57.477
59.089
60.713
62.277
63.735
65.029
66.13
67.026
67.677
68.067
68.183
67.998
67.525
66.809
65.883
64.793
63.57
62.197
60.682
59.08
57.369
55.425
53.237
50.868
48.325
45.776
42.976
39.079
34.266
29.358
25.658
25.64
29.223
33.926
37.299
35.856
29.297
20.952
13.403
9.406
9.519
11.263
13.096
13.986
13.59
12.913
12.425
12.086
11.926
11.79
11.629
11.574
11.659
11.853
12.152
12.553
13.041
13.601
14.212
14.84
15.47
16.102
16.733
17.351
17.95
18.521
19.056
19.552
20.003
20.4
20.738
21.009
21.208
21.331
21.373
21.331
21.201
20.982
20.67
20.265
19.765
19.171
18.481
17.698
16.823
15.857
14.804
13.667
12.449
11.156
9.791
8.361
6.871
5.327
3.735
2.102
0.433
-1.263
-2.98
-4.71
-6.445
-8.178
-9.899
-11.602
-13.277
-14.916
-16.511
-18.051
-19.53
-20.939
-22.269
-23.513
-24.664
-25.713
-26.656
-27.487
-28.2
-28.793
-29.262
-29.606
-29.824
-29.915
-29.882
-29.725
-29.448
-29.056
-28.553
-27.945
-27.24
-26.445
-25.57
-24.624
-23.618
-22.562
-21.471
-20.355
-19.229
-18.107
-17.002
-15.931
-14.908
-13.949
-13.069
-12.285
-11.61
-11.059
-10.647
-10.385
-10.287
-10.361
-10.62
-11.07
-11.72
-12.575
-13.641
-14.92
-16.414
-18.124
-20.047
-22.182
-24.522
-27.061
-29.792
-32.705
-35.79
-39.035
-42.426
-45.949
-49.589
-53.329
-57.151
-61.037
-64.964
-68.913
-72.863
-76.791
-80.677
-84.499
-88.236
-91.869
-95.379
-98.747
-101.957
-104.991
-107.834
-110.468
-112.882
-115.062
-116.998
-118.678
-120.095
-121.245
-122.123
-122.728
-123.058
-123.114
-122.9
-122.419
-121.676
-120.674
-119.42
-117.921
-116.188
-114.233
-112.065
-109.696
-107.14
-104.41
-101.524
-98.495
-95.335
-92.055
-88.666
-85.181
-81.614
-77.982
-74.297
-70.572
-66.824
-63.074
-59.354
-55.694
-52.117
-48.633
-45.243
-41.952
-38.768
-35.694
-32.718
-29.824
-27.002
-24.253
-21.596
-19.049
-16.603
-14.234
-11.898
-9.542
-7.125
-4.637
-2.094
0.483
3.05
5.544
7.878
9.922
11.547
12.723
13.531
14.111
14.635
15.215
15.84
16.562
17.517
18.657
19.753
20.361
19.823
17.706
13.92
8.302
0.567
-9.192
-20.541
-32.485
-43.482
-52.336
-58.095
-59.505
-55.173
-44.149
-26.609
-4.093
21.451
48.765
77.86
108.896
140.09
167.382
184.527
185.569
167.656
131.844
83.552
29.143
-26.743
-81.565
-135.265
-187.19
-234.626
-274.3
-303.774
-322.699
-331.888
-332.029
-322.673
-302.948
-274.516
-242.037
-211.933
-190.338
-180.741
-182.182
-190.621
-201.747
-210.77
-215.75
-217.184
-215.139
-211.684
-207.623
-202.796
-198.404
-193.928
-189.299
-184.963
-180.342
-175.854
-172.017
-168.739
-166.101
-163.829
-161.414
-158.71
-155.697
-152.352
-148.744
-144.883
-140.743
-136.369
-131.829
-127.177
-122.467
-117.733
-112.999
-108.304
-103.701
-99.251
-95.006
-90.999
-87.255
-83.788
-80.605
-77.717
-75.131
-72.844
-70.861
-69.184
-67.811
-66.745
-65.986
-65.526
-65.355
-65.459
-65.822
-66.429
-67.272
-68.337
-69.615
-71.096
-72.768
-74.624
-76.65
-78.833
-81.158
-83.608
-86.166
-88.817
-91.544
-94.333
-97.168
-100.036
-102.925
-105.822
-108.714
-111.591
-114.438
-117.246
-120.002
-122.696
-125.319
-127.86
-130.311
-132.665
-134.914
-137.054
-139.078
-140.981
-142.76
-144.411
-145.929
-147.313
-148.559
-149.666
-150.633
-151.457
-152.139
-152.678
-153.074
-153.327
-153.437
-153.403
-153.227
-152.907
-152.444
-151.838
-151.089
-150.198
-149.164
-147.988
-146.672
-145.217
-143.623
-141.893
-140.029
-138.033
-135.907
-133.654
-131.278
-128.782
-126.17
-123.447
-120.619
-117.691
-114.669
-111.561
-108.374
-105.116
-101.796
-98.422
-95.004
-91.552
-88.076
-84.589
-81.1
-77.622
-74.166
-70.744
-67.369
-64.052
-60.806
-57.642
-54.571
-51.605
-48.753
-46.028
-43.436
-40.989
-38.693
-36.556
-34.583
-32.781
-31.154
-29.704
-28.434
-27.345
-26.436
-25.706
-25.152
-24.77
-24.555
-24.499
-24.597
-24.838
-25.213
-25.711
-26.321
-27.029
-27.825
-28.694
-29.623
-30.596
-31.595
-32.609
-33.622
-34.615
-35.569
-36.466
-37.286
-38.019
-38.659
-39.186
-39.58
-39.845
-39.98
-39.985
-39.862
-39.591
-39.141
-38.519
-37.742
-36.745
-35.452
-33.907
-32.105
-30.033
-27.854
-25.143
-21.491
-17.494
-13.34
-10.123
-9.155
-9.004
-8.722
-6.891
-1.561
5.516
12.853
19.425
23.549
26.403
29.178
32.128
35.972
40.264
44.437
48.573
52.582
56.48
60.358
64.123
67.7
71.091
74.284
77.26
80.012
82.533
84.815
86.855
88.653
90.19
91.45
92.426
93.109
93.493
93.574
93.353
92.836
92.027
90.932
89.548
87.865
85.877
83.587
81.005
78.144
75.021
71.656
68.083
64.35
60.507
56.601
52.661
48.698
44.725
40.757
36.817
32.939
29.144
25.432
21.803
18.258
14.797
11.43
8.137
4.851
1.493
-2.022
-5.758
-9.738
-13.966
-18.474
-23.308
-28.456
-33.822
-39.206
-44.306
-48.886
-52.78
-55.792
-57.75
-58.639
-58.58
-57.924
-57.319
-57.275
-58.175
-60.468
-64.227
-69.064
-74.355
-78.99
-81.517
-80.798
-75.709
-64.905
-47.669
-23.935
5.997
40.423
76.69
112.794
146.432
176.533
204.101
228.213
246.601
255.062
247.048
219.826
174.896
116.56
51.434
-15.428
-80.429
-139.309
-186.982
-219.008
-233.292
-230.615
-214.291
-187.763
-154.083
-116.999
-82.126
-56.568
-44.929
-48.423
-63.34
-81.615
-97.817
-109.471
-116.657
-122.804
-129.506
-135.999
-141.354
-144.247
-144.395
-142.927
-141.068
-139.476
-138.441
-138.102
-138.375
-139.166
-140.4
-141.763
-142.894
-143.678
-144.071
-144.057
-143.717
-143.062
-142.069
-140.786
-139.252
-137.472
-135.467
-133.244
-130.809
-128.219
-125.521
-122.738
-119.895
-116.997
-114.044
-111.04
-107.98
-104.854
-101.663
-98.413
-95.116
-91.788
-88.438
-85.068
-81.68
-78.264
-74.813
-71.32
-67.773
-64.166
-60.495
-56.758
-52.956
-49.095
-45.176
-41.2
-37.168
-33.077
-28.927
-24.719
-20.451
-16.124
-11.74
-7.303
-2.818
1.707
6.265
10.85
15.454
20.067
24.681
29.286
33.874
38.434
42.954
47.424
51.831
56.163
60.406
64.548
68.574
72.471
76.225
79.824
83.255
86.507
89.569
92.43
95.082
97.516
99.724
101.699
103.436
104.929
106.176
107.174
107.924
108.425
108.682
108.696
108.474
108.021
107.345
106.455
105.36
104.07
102.597
100.954
99.154
97.21
95.138
92.953
90.669
88.304
85.871
83.388
80.868
78.326
75.777
73.235
70.711
68.219
65.769
63.371
61.035
58.768
56.578
54.47
52.448
50.516
48.674
46.923
45.263
43.691
42.203
40.797
39.465
38.203
37.004
35.859
34.761
33.702
32.672
31.664
30.668
29.676
28.681
27.674
26.648
25.599
24.52
23.407
22.257
21.067
19.837
18.566
17.255
15.907
14.524
13.112
11.675
10.223
8.762
7.303
5.855
4.431
3.043
1.704
0.427
-0.774
-1.886
-2.895
-3.786
-4.548
-5.167
-5.631
-5.931
-6.055
-5.996
-5.746
-5.302
-4.659
-3.816
-2.771
-1.528
-0.088
1.543
3.36
5.356
7.521
9.844
12.313
14.915
17.633
20.45
23.347
26.304
29.3
32.312
35.32
38.299
41.227
44.081
46.839
49.478
51.977
54.314
56.471
58.427
60.165
61.67
62.927
63.925
64.656
65.112
65.287
65.18
64.788
64.112
63.151
61.907
60.385
58.59
56.529
54.216
51.664
48.891
45.917
42.766
39.457
36.014
32.458
28.808
25.082
21.296
17.465
13.607
9.738
5.872
2.024
-1.794
-5.572
-9.303
-12.978
-16.593
-20.136
-23.597
-26.968
-30.235
-33.375
-36.362
-39.156
-41.734
-44.07
-46.14
-47.911
-49.342
-50.4
-51.081
-51.406
-51.42
-51.18
-50.726
-50.112
-49.432
-48.717
-47.969
-47.138
-46.046
-44.555
-42.608
-40.113
-37.055
-33.646
-30.2
-27.195
-25.347
-25.161
-27
-31.312
-38.173
-47.141
-57.429
-67.78
-76.62
-82.589
-84.359
-80.433
-69.855
-52.469
-28.757
0.093
32.384
66.097
98.807
127.693
150.07
163.978
168.019
160.962
142.869
115.477
80.775
41.462
-1.365
-49.341
-101.487
-154.531
-202.209
-234.641
-246.726
-237.216
-208.065
-167.471
-122.026
-78.317
-43.815
-19.437
-4.592
3.229
10.151
18.093
26.838
35.93
42.712
46.368
48.087
48.739
49.651
51.893
55.504
60.261
65.888
71.94
77.946
83.727
89.193
94.156
98.586
102.491
105.875
108.936
111.944
115.025
118.244
121.627
125.13
128.739
132.459
136.234
139.982
143.642
147.161
150.509
153.693
156.719
159.586
162.297
164.856
167.269
169.552
171.728
173.805
175.787
177.677
179.475
181.191
182.834
184.415
185.941
187.418
188.85
190.241
191.596
192.918
194.206
195.457
196.668
197.835
198.957
200.036
201.073
202.067
203.019
203.929
204.798
205.626
206.41
207.15
207.84
208.48
209.066
209.599
210.076
210.497
210.861
211.169
211.419
211.612
211.748
211.824
211.84
211.795
211.687
211.516
211.279
210.977
210.607
210.167
209.657
209.072
208.411
207.67
206.844
205.929
204.922
203.819
202.616
201.308
199.887
198.349
196.693
194.91
192.987
190.911
188.669
186.254
183.672
180.92
177.978
174.851
171.564
168.133
164.579
160.903
157.067
153.058
148.914
144.597
139.968
134.998
129.734
124.162
118.438
112.29
104.856
96.332
87.528
79.772
75.555
74.743
74.862
73.448
66.998
55.303
41.709
28.811
19.406
14.003
10.131
6.282
1.434
-4.712
-11.12
-17.311
-23.299
-29.032
-34.645
-40.16
-45.424
-50.381
-55.041
-59.387
-63.403
-67.083
-70.424
-73.433
-76.127
-78.51
-80.566
-82.292
-83.688
-84.754
-85.494
-85.912
-86.01
-85.792
-85.27
-84.451
-83.347
-81.968
-80.325
-78.431
-76.297
-73.937
-71.363
-68.588
-65.627
-62.494
-59.202
-55.766
-52.201
-48.522
-44.744
-40.881
-36.948
-32.959
-28.927
-24.866
-20.79
-16.712
-12.643
-8.599
-4.593
-0.638
3.254
7.068
10.793
14.417
17.928
21.315
24.567
27.673
30.621
33.401
35.999
38.405
40.604
42.582
44.326
45.825
47.066
48.037
48.731
49.137
49.251
49.07
48.588
47.803
46.71
45.302
43.574
41.524
39.15
36.452
33.434
30.101
26.461
22.531
18.325
13.856
9.131
4.149
-1.086
-6.56
-12.257
-18.152
-24.214
-30.414
-36.706
-43.033
-49.341
-55.575
-61.699
-67.703
-73.573
-79.288
-84.826
-90.141
-95.198
-99.993
-104.521
-108.779
-112.777
-116.517
-120.04
-123.429
-126.777
-130.174
-133.677
-137.3
-141.059
-144.965
-149.049
-153.381
-157.933
-162.569
-167.103
-171.255
-174.793
-177.571
-179.313
-179.72
-178.731
-176.464
-173.325
-170.057
-167.206
-165.153
-164.404
-165.098
-166.897
-169.241
-171.023
-170.731
-167.123
-158.93
-144.84
-124.252
-97.233
-64.356
-26.937
12.819
52.173
88.181
117.972
140.47
155.977
163.575
161.112
144.736
110.237
57.438
-10.395
-88.336
-170.402
-251.948
-328.586
-394.312
-443.943
-474.308
-484.952
-479.562
-462.787
-439.392
-414.594
-391.778
-373.854
-361.216
-351.342
-342.401
-332.555
-322.147
-313.74
-308.155
-305.5
-305.102
-304.916
-303.988
-302.046
-298.507
-293.373
-286.944
-279.445
-271.412
-263.512
-255.987
-248.938
-242.626
-237.101
-232.295
-228.092
-224.122
-219.982
-215.51
-210.638
-205.324
-199.6
-193.467
-186.924
-180.076
-173.033
-165.869
-158.639
-151.356
-144.031
-136.709
-129.452
-122.328
-115.392
-108.67
-102.177
-95.927
-89.931
-84.198
-78.724
-73.491
-68.486
-63.701
-59.131
-54.779
-50.639
-46.698
-42.946
-39.368
-35.955
-32.698
-29.592
-26.63
-23.808
-21.126
-18.581
-16.176
-13.91
-11.782
-9.79
-7.931
-6.204
-4.608
-3.142
-1.807
-0.603
0.468
1.404
2.201
2.858
3.373
3.742
3.964
4.036
3.957
3.724
3.337
2.794
2.094
1.238
0.225
-0.942
-2.261
-3.73
-5.346
-7.103
-8.995
-11.017
-13.161
-15.418
-17.781
-20.237
-22.778
-25.391
-28.063
-30.782
-33.533
-36.303
-39.075
-41.834
-44.564
-47.247
-49.868
-52.409
-54.854
-57.187
-59.39
-61.45
-63.35
-65.077
-66.616
-67.954
-69.079
-69.981
-70.649
-71.076
-71.253
-71.175
-70.837
-70.237
-69.373
-68.245
-66.854
-65.202
-63.295
-61.138
-58.738
-56.103
-53.244
-50.172
-46.899
-43.439
-39.806
-36.015
-32.084
-28.029
-23.867
-19.616
-15.296
-10.924
-6.519
-2.099
2.316
6.709
11.063
15.361
19.587
23.725
27.762
31.684
35.481
39.141
42.654
46.014
49.213
52.247
55.112
57.806
60.328
62.681
64.866
66.887
68.75
70.461
72.028
73.46
74.767
75.959
77.049
78.049
78.974
79.838
80.655
81.44
82.206
82.969
83.742
84.538
85.369
86.246
87.181
88.182
89.258
90.416
91.661
92.998
94.431
95.958
97.58
99.294
101.093
102.972
104.922
106.933
108.995
111.093
113.214
115.342
117.461
119.55
121.591
123.559
125.43
127.178
128.778
130.205
131.432
132.436
133.192
133.679
133.881
133.779
133.354
132.589
131.468
129.975
128.095
125.816
123.129
120.026
116.504
112.565
108.214
103.459
98.306
92.76
86.822
80.499
73.804
66.759
59.386
51.719
43.796
35.665
27.386
19.019
10.619
2.24
-6.068
-14.256
-22.283
-30.1
-37.654
-44.898
-51.8
-58.344
-64.531
-70.367
-75.856
-81.013
-85.879
-90.511
-94.975
-99.338
-103.66
-107.97
-112.298
-116.719
-121.249
-125.823
-130.308
-134.423
-137.871
-140.475
-142.009
-142.171
-140.877
-138.203
-134.422
-130.172
-125.953
-121.982
-118.623
-116.257
-114.774
-113.728
-112.143
-108.453
-101.493
-90.537
-74.545
-52.393
-23.461
12.371
53.834
98.365
143.897
189.025
233.234
276.303
316.442
349.833
370.54
373.457
357.118
323.632
279.206
228.807
173.344
113.857
50.987
-10.364
-60.223
-92.973
-106.857
-104.632
-93.551
-77.049
-56.358
-33.569
-11.093
6.723
16.507
18.43
15.647
11.859
8.637
5.803
1.894
-4.223
-12.051
-20.594
-28.858
-36.05
-41.724
-45.942
-49.023
-51.356
-53.576
-55.996
-58.568
-61.315
-64.248
-67.354
-70.664
-74.047
-77.189
-79.905
-82.117
-83.794
-84.994
-85.73
-85.963
-85.706
-85.002
-83.903
-82.477
-80.771
-78.81
-76.616
-74.205
-71.596
-68.813
-65.871
-62.778
-59.535
-56.131
-52.572
-48.873
-45.05
-41.12
-37.095
-32.975
-28.767
-24.481
-20.125
-15.706
-11.232
-6.706
-2.136
2.463
7.077
11.688
16.281
20.846
25.369
29.84
34.247
38.579
42.825
46.976
51.021
54.948
58.745
62.399
65.898
69.23
72.383
75.348
78.114
80.672
83.013
85.13
87.017
88.666
90.072
91.231
92.139
92.794
93.194
93.337
93.225
92.86
92.245
91.384
90.284
88.951
87.392
85.617
83.636
81.459
79.097
76.562
73.868
71.03
68.061
64.979
61.798
58.537
55.213
51.842
48.444
45.036
41.635
38.259
34.924
31.649
28.448
25.339
22.336
19.455
16.708
14.108
11.669
9.399
7.31
5.41
3.705
2.204
0.91
-0.172
-1.04
-1.69
-2.123
-2.338
-2.336
-2.119
-1.69
-1.054
-0.214
0.824
2.054
3.469
5.062
6.825
8.749
10.826
13.048
15.405
17.887
20.484
23.188
25.989
28.876
31.84
34.872
37.962
41.102
44.282
47.495
50.732
53.988
57.253
60.524
63.794
67.058
70.312
73.551
76.772
79.971
83.147
86.297
89.419
92.513
95.577
98.611
101.614
104.586
107.529
110.44
113.323
116.176
119.001
121.799
124.571
127.319
130.043
132.747
135.431
138.098
140.748
143.384
146.004
148.611
151.202
153.777
156.333
158.867
161.375
163.855
166.3
168.704
171.061
173.364
175.607
177.779
179.873
181.878
183.784
185.581
187.259
188.806
190.212
191.464
192.553
193.469
194.201
194.738
195.067
195.177
195.056
194.693
194.079
193.205
192.063
190.65
188.963
187.007
184.782
182.29
179.534
176.514
173.235
169.703
165.921
161.892
157.623
153.118
148.385
143.433
138.266
132.886
127.298
121.507
115.525
109.372
103.067
96.632
90.097
83.495
76.869
70.264
63.728
57.302
51.038
45
39.242
33.808
28.724
23.986
19.574
15.481
11.651
7.99
4.46
1.065
-2.125
-4.946
-7.294
-9.174
-10.531
-11.27
-11.491
-11.449
-11.673
-12.947
-15.75
-20.228
-26.526
-34.773
-44.808
-56.132
-67.591
-77.48
-84.624
-88.343
-87.964
-82.787
-72.229
-56.148
-35.308
-11.214
15.065
42.785
70.395
95.429
115.396
128.536
135.511
138.639
138.001
131.356
114.462
82.799
35.9
-23.476
-91.24
-161.977
-230.441
-291.034
-336.317
-360.553
-362.34
-344.391
-314.325
-280.709
-248.599
-220.162
-194.916
-171.244
-149.37
-130.702
-116.559
-107.852
-104.049
-103.628
-104.884
-106.251
-106.691
-105.447
-102.092
-96.593
-89.218
-80.558
-71.43
-62.612
-54.6
-47.731
-42.152
-37.818
-34.602
-32.237
-30.355
-28.61
-26.8
-24.837
-22.702
-20.425
-18.024
-15.525
-12.991
-10.487
-8.052
-5.697
-3.422
-1.228
0.863
2.804
4.569
6.144
7.531
8.742
9.793
10.692
11.46
12.125
12.712
13.241
13.726
14.175
14.601
15.023
15.461
15.935
16.461
17.054
17.722
18.475
19.315
20.245
21.262
22.359
23.531
24.775
26.083
27.452
28.873
30.336
31.831
33.347
34.871
36.388
37.882
39.337
40.738
42.069
43.315
44.461
45.492
46.395
47.156
47.763
48.206
48.473
48.553
48.439
48.123
47.599
46.862
45.908
44.736
43.345
41.736
39.912
37.877
35.636
33.195
30.563
27.749
24.765
21.621
18.33
14.907
11.365
7.721
3.99
0.19
-3.664
-7.554
-11.464
-15.378
-19.278
-23.151
-26.982
-30.755
-34.459
-38.079
-41.605
-45.023
-48.325
-51.5
-54.538
-57.434
-60.179
-62.767
-65.195
-67.457
-69.552
-71.477
-73.233
-74.817
-76.226
-77.461
-78.522
-79.413
-80.138
-80.699
-81.099
-81.352
-81.475
-81.486
-81.392
-81.192
-80.886
-80.482
-79.974
-79.332
-78.511
-77.477
-76.231
-74.803
-73.22
-71.479
-69.643
-67.9
-66.403
-65.184
-64.188
-63.25
-62.67
-63.199
-64.987
-67.43
-68.45
-65.179
-56.674
-44.033
-30.768
-21.629
-19.051
-23.377
-32.819
-43.745
-53.269
-58.964
-58.691
-51.927
-39.373
-22.913
-6.303
6.483
12.852
11.78
4.658
-5.327
-14.657
-20.691
-21.581
-15.902
-4.325
11.983
30.78
46.763
56.402
57.21
47.505
30.894
11.745
-4.949
-12.818
-10.297
1.852
21.355
43.118
64.383
83.029
95.636
100.785
97.921
88.411
77.476
69.671
66.791
68.303
71.242
73.245
74.059
74.467
75.343
76.733
78.168
79.253
79.814
79.996
79.846
79.088
77.598
75.576
73.164
70.477
67.679
64.22
59.642
54.615
49.388
45.117
43.155
42.027
40.77
37.975
31.671
23.673
15.511
8.212
3.466
0.05
-3.274
-6.782
-11.238
-16.243
-21.303
-26.593
-32.095
-37.891
-44.138
-50.772
-57.724
-65.005
-72.592
-80.422
-88.445
-96.558
-104.65
-112.69
-120.596
-128.183
-135.193
-141.215
-145.842
-148.886
-150.205
-149.596
-147.029
-142.664
-136.943
-130.721
-124.888
-119.451
-113.746
-107.88
-102.104
-97.24
-94.825
-93.03
-87.963
-76.205
-54.193
-22.81
13.329
50.271
84.805
116.81
147.003
173.964
193.159
197.199
182.225
148.088
99.043
42.299
-19.332
-83.202
-146.571
-205.999
-252.882
-282.489
-294.608
-291.243
-279.906
-264.812
-246.457
-227.115
-206.573
-186.181
-169.659
-157.103
-148.904
-145.132
-144.016
-145.829
-150.41
-156.945
-165.203
-173.772
-181.401
-187.457
-191.349
-193.138
-193.251
-191.975
-189.717
-186.995
-184.068
-181.146
-178.408
-175.854
-173.429
-171.059
-168.558
-165.67
-162.273
-158.33
-153.831
-148.84
-143.392
-137.504
-131.252
-124.747
-118.083
-111.345
-104.58
-97.793
-91.003
-84.243
-77.542
-70.933
-64.434
-58.048
-51.791
-45.691
-39.778
-34.084
-28.629
-23.422
-18.475
-13.799
-9.405
-5.302
-1.498
2.009
5.215
8.119
10.72
13.016
15.009
16.706
18.119
19.26
20.143
20.785
21.204
21.421
21.456
21.33
21.063
20.677
20.193
19.634
19.023
18.383
17.738
17.112
16.528
16.009
15.577
15.252
15.055
15.002
15.11
15.394
15.864
16.532
17.406
18.493
19.798
21.323
23.068
25.032
27.21
29.598
32.186
34.965
37.923
41.047
44.321
47.73
51.256
54.88
58.583
62.344
66.142
69.954
73.758
77.529
81.245
84.882
88.416
91.824
95.084
98.176
101.078
103.771
106.238
108.463
110.43
112.126
113.54
114.663
115.485
116.002
116.21
116.106
115.69
114.965
113.933
112.602
110.978
109.071
106.893
104.457
101.777
98.869
95.752
92.445
88.968
85.343
81.592
77.739
73.807
69.82
65.803
61.78
57.773
53.807
49.902
46.082
42.365
38.772
35.321
32.027
28.906
25.973
23.238
20.713
18.406
16.324
14.471
12.851
11.463
10.309
9.383
8.681
8.197
7.92
7.841
7.947
8.223
8.653
9.221
9.906
10.69
11.552
12.47
13.424
14.39
15.349
16.279
17.158
17.968
18.688
19.3
19.786
20.129
20.314
20.325
20.15
19.776
19.195
18.397
17.372
16.117
14.63
12.904
10.937
8.727
6.274
3.585
0.677
-2.448
-5.787
-9.311
-12.997
-16.821
-20.753
-24.786
-28.926
-33.142
-37.392
-41.719
-46.177
-50.702
-55.283
-59.916
-64.426
-69.215
-74.671
-80.187
-85.566
-89.718
-91.342
-91.84
-92.142
-93.642
-98.265
-104.296
-110.277
-115.208
-117.435
-118.126
-118.471
-118.74
-119.662
-120.823
-121.68
-122.336
-122.726
-122.893
-122.948
-122.816
-122.424
-121.767
-120.833
-119.612
-118.108
-116.327
-114.267
-111.929
-109.313
-106.429
-103.311
-100.006
-96.575
-93.078
-89.554
-86.062
-82.709
-79.542
-76.567
-73.742
-70.876
-67.803
-64.527
-61.046
-57.375
-53.722
-50.239
-47.095
-44.825
-43.865
-44.307
-46.231
-49.397
-53.052
-56.655
-59.728
-61.247
-60.24
-55.975
-47.599
-34.884
-18.501
1.039
23.284
47.082
70.927
92.942
110.724
122.346
126.694
122.669
109.085
85.27
52.015
11.107
-35.561
-85.457
-137.486
-190.561
-240.097
-282.241
-313.521
-330.856
-336.286
-332.23
-320.472
-303.986
-283.86
-261.497
-238.916
-217.319
-198.254
-182.84
-171.735
-165.295
-162.748
-162.823
-164.336
-165.997
-167.041
-167.065
-165.392
-161.686
-156.134
-149.108
-141.253
-133.34
-125.723
-118.558
-112.112
-106.434
-101.441
-97.048
-92.96
-88.838
-84.56
-80.076
-75.353
-70.449
-65.396
-60.205
-54.967
-49.773
-44.673
-39.716
-34.927
-30.32
-25.942
-21.83
-18.008
-14.496
-11.295
-8.4
-5.807
-3.505
-1.47
0.312
1.861
3.192
4.318
5.255
6.026
6.65
7.156
7.566
7.905
8.196
8.462
8.722
8.993
9.289
9.62
10
10.443
10.96
11.564
12.265
13.071
13.988
15.023
16.178
17.453
18.845
20.349
21.959
23.667
25.466
27.344
29.291
31.294
33.34
35.414
37.502
39.587
41.654
43.685
45.665
47.577
49.404
51.132
52.746
54.23
55.571
56.757
57.776
58.617
59.272
59.731
59.989
60.041
59.883
59.514
58.932
58.141
57.144
55.945
54.552
52.973
51.219
49.299
47.227
45.016
42.681
40.237
37.699
35.085
32.41
29.693
26.949
24.197
21.453
18.733
16.053
13.43
10.877
8.408
6.037
3.776
1.636
-0.373
-2.243
-3.966
-5.536
-6.949
-8.2
-9.289
-10.214
-10.976
-11.576
-12.02
-12.311
-12.455
-12.46
-12.334
-12.085
-11.724
-11.262
-10.71
-10.08
-9.383
-8.632
-7.839
-7.017
-6.178
-5.333
-4.495
-3.675
-2.882
-2.128
-1.42
-0.768
-0.177
0.346
0.797
1.171
1.467
1.684
1.821
1.879
1.86
1.769
1.609
1.387
1.109
0.783
0.418
0.025
-0.388
-0.807
-1.223
-1.622
-1.993
-2.323
-2.599
-2.808
-2.938
-2.977
-2.911
-2.729
-2.42
-1.974
-1.382
-0.635
0.273
1.346
2.588
4
5.583
7.336
9.257
11.34
13.581
15.973
18.509
21.178
23.97
26.872
29.872
32.954
36.103
39.303
42.537
45.786
49.035
52.266
55.46
58.601
61.67
64.647
67.516
70.256
72.852
75.286
77.544
79.615
81.493
83.173
84.653
85.933
87.013
87.894
88.581
89.074
89.375
89.486
89.41
89.155
88.732
88.15
87.42
86.548
85.545
84.422
83.188
81.859
80.451
78.978
77.469
75.953
74.471
73.072
71.8
70.687
69.769
69.086
68.675
68.588
68.858
69.487
70.48
71.815
73.464
75.412
77.597
79.933
82.398
84.998
87.803
90.988
94.656
98.85
103.683
109.189
115.228
121.541
127.627
132.905
137.016
139.7
140.698
139.936
137.656
134.55
131.778
130.437
131.35
135.355
143.244
155.698
173.166
195.248
220.779
248.827
278.068
306.255
331.737
352.915
368.788
380.371
386.674
384.322
370.009
340.761
298.5
249.095
197.873
148.14
98.883
48.941
0.292
-41.856
-69.309
-76.678
-63.32
-32.92
7.309
50.295
90.271
123.829
149.357
166.881
178.225
184.682
187.833
188.379
185.416
179.196
170.361
160.231
151.134
144.284
140.018
138.379
138.776
140.613
143.463
146.581
149.329
151.468
152.86
153.539
153.709
153.494
153.056
152.684
152.545
152.678
153.094
153.706
154.424
155.217
156.019
156.751
157.37
157.83
158.115
158.251
158.246
158.107
157.846
157.468
156.984
156.42
155.786
155.093
154.347
153.553
152.714
151.843
150.947
150.037
149.123
148.211
147.307
146.419
145.553
144.715
143.908
143.131
142.386
141.673
140.996
140.356
139.753
139.187
138.657
138.158
137.688
137.241
136.808
136.383
135.955
135.516
135.056
134.566
134.036
133.457
132.818
132.108
131.318
130.436
129.453
128.358
127.143
125.799
124.319
122.695
120.922
118.995
116.91
114.662
112.251
109.675
106.934
104.032
100.97
97.755
94.392
90.889
87.253
83.495
79.624
75.649
71.581
67.43
63.206
58.92
54.581
50.202
45.795
41.371
36.946
32.532
28.139
23.782
19.471
15.212
11.012
6.872
2.792
-1.228
-5.187
-9.084
-12.92
-16.697
-20.416
-24.076
-27.68
-31.234
-34.75
-38.248
-41.748
-45.252
-48.762
-52.272
-55.765
-59.228
-62.651
-66.01
-69.291
-72.497
-75.638
-78.751
-81.876
-85.033
-88.229
-91.451
-94.686
-97.946
-101.247
-104.61
-108.075
-111.677
-115.455
-119.481
-123.798
-128.405
-133.268
-138.299
-143.383
-148.442
-153.416
-158.262
-162.95
-167.42
-171.611
-175.472
-178.931
-181.909
-184.319
-186.02
-186.908
-186.945
-186.133
-184.546
-182.3
-179.471
-176.118
-172.301
-168.054
-163.431
-158.485
-153.241
-147.74
-142.039
-136.214
-130.385
-124.657
-119.08
-113.672
-108.403
-103.21
-98.058
-92.925
-87.779
-82.612
-77.421
-72.203
-66.987
-61.806
-56.671
-51.584
-46.523
-41.469
-36.429
-31.423
-26.487
-21.674
-17.025
-12.572
-8.358
-4.411
-0.751
2.608
5.669
8.445
10.938
13.147
15.07
16.703
18.048
19.114
19.911
20.452
20.751
20.822
20.683
20.35
19.838
19.161
18.331
17.359
16.261
15.057
13.767
12.412
11.012
9.588
8.158
6.743
5.358
4.018
2.735
1.519
0.381
-0.671
-1.634
-2.507
-3.288
-3.98
-4.584
-5.095
-5.509
-5.821
-6.024
-6.108
-6.06
-5.861
-5.493
-4.936
-4.172
-3.179
-1.915
-0.355
1.516
3.696
6.143
8.805
11.63
14.532
17.409
20.217
22.953
25.671
28.494
31.491
34.678
38.116
41.803
45.552
49.016
51.657
52.89
52.374
49.928
45.364
38.669
30.165
20.559
11
2.667
-3.62
-7.15
-7.149
-3.026
5.57
18.536
35.112
54.535
75.657
96.556
115.395
130.729
142.651
152.454
159.954
162.599
155.282
132.858
94.12
41.289
-20.752
-86.588
-152.883
-215.577
-269.755
-310.65
-333.249
-336.498
-322.489
-294.367
-258.198
-218.946
-182.063
-154.828
-140.013
-138.477
-147.957
-161.244
-174.043
-184.267
-191.204
-197.504
-204.329
-210.893
-216.413
-219.497
-219.681
-217.775
-214.751
-211.515
-208.554
-206.031
-203.986
-202.368
-201.124
-200.097
-199.01
-197.592
-195.676
-193.191
-190.149
-186.607
-182.588
-178.113
-173.22
-167.961
-162.399
-156.584
-150.556
-144.347
-137.98
-131.479
-124.866
-118.165
-111.39
-104.55
-97.648
-90.686
-83.675
-76.637
-69.596
-62.576
-55.591
-48.654
-41.78
-34.979
-28.262
-21.64
-15.123
-8.721
-2.447
3.682
9.647
15.43
21.015
26.389
31.542
36.464
41.146
45.581
49.761
53.682
57.34
60.728
63.841
66.677
69.231
71.505
73.498
75.213
76.654
77.826
78.736
79.389
79.795
79.963
79.9
79.618
79.126
78.436
77.559
76.508
75.297
73.939
72.448
70.84
69.128
67.327
65.453
63.519
61.539
59.527
57.496
55.458
53.425
51.41
49.422
47.471
45.567
43.715
41.924
40.199
38.544
36.963
35.458
34.031
32.683
31.413
30.222
29.108
28.069
27.103
26.207
25.376
24.607
23.895
23.233
22.617
22.039
21.495
20.976
20.477
19.989
19.508
19.025
18.535
18.031
17.507
16.96
16.383
15.774
15.128
14.445
13.721
12.956
12.149
11.299
10.408
9.476
8.505
7.495
6.448
5.367
4.254
3.112
1.942
0.748
-0.467
-1.701
-2.949
-4.208
-5.475
-6.747
-8.018
-9.286
-10.547
-11.797
-13.033
-14.252
-15.451
-16.628
-17.78
-18.906
-20.006
-21.077
-22.121
-23.137
-24.126
-25.088
-26.024
-26.935
-27.822
-28.687
-29.531
-30.355
-31.16
-31.947
-32.717
-33.473
-34.214
-34.942
-35.659
-36.366
-37.065
-37.758
-38.446
-39.132
-39.818
-40.507
-41.202
-41.904
-42.616
-43.34
-44.078
-44.833
-45.607
-46.4
-47.217
-48.057
-48.925
-49.822
-50.751
-51.716
-52.721
-53.769
-54.865
-56.012
-57.217
-58.485
-59.82
-61.227
-62.713
-64.282
-65.941
-67.695
-69.55
-71.509
-73.578
-75.76
-78.061
-80.481
-83.024
-85.689
-88.478
-91.392
-94.431
-97.596
-100.885
-104.297
-107.828
-111.472
-115.221
-119.064
-122.988
-126.977
-131.017
-135.092
-139.187
-143.289
-147.386
-151.466
-155.518
-159.528
-163.48
-167.359
-171.153
-174.851
-178.445
-181.926
-185.28
-188.5
-191.573
-194.49
-197.233
-199.772
-202.068
-204.074
-205.748
-207.063
-207.988
-208.486
-208.516
-208.026
-206.982
-205.389
-203.258
-200.605
-197.462
-193.837
-189.786
-185.448
-180.899
-176.156
-171.165
-165.713
-159.63
-152.915
-145.498
-137.279
-128.424
-119.198
-110.111
-102.131
-96.015
-92.173
-91.064
-92.855
-97.096
-103.091
-109.615
-114.687
-116.615
-113.995
-105.361
-89.768
-67.006
-37.323
-1.735
37.333
76.93
114.251
146.769
173.75
195.721
211.95
219.636
214.347
192.238
152.748
99.907
39.687
-23.855
-86.997
-146.98
-199.994
-238.784
-259.807
-262.65
-249.844
-227.897
-200.09
-168.825
-137.419
-108.643
-87.069
-75.538
-73.167
-76.449
-80.652
-82.589
-81.571
-79.238
-77.366
-76.393
-75.69
-73.875
-70.298
-65.481
-60.404
-55.892
-52.231
-49.339
-47.099
-45.543
-44.677
-44.294
-44.047
-43.644
-42.936
-41.914
-40.638
-39.114
-37.329
-35.308
-33.101
-30.767
-28.367
-25.928
-23.466
-21.017
-18.626
-16.354
-14.251
-12.347
-10.659
-9.194
-7.951
-6.928
-6.118
-5.505
-5.08
-4.837
-4.764
-4.853
-5.094
-5.47
-5.962
-6.548
-7.201
-7.901
-8.627
-9.362
-10.087
-10.787
-11.445
-12.048
-12.579
-13.021
-13.354
-13.561
-13.621
-13.519
-13.236
-12.757
-12.068
-11.157
-10.014
-8.628
-6.994
-5.104
-2.954
-0.539
2.141
5.087
8.297
11.768
15.494
19.468
23.681
28.122
32.778
37.636
42.679
47.891
53.255
58.752
64.361
70.062
75.835
81.658
87.507
93.362
99.2
104.997
110.732
116.383
121.928
127.346
132.619
137.727
142.653
147.381
151.895
156.183
160.231
164.029
167.569
170.842
173.843
176.567
179.014
181.182
183.073
184.689
186.035
187.116
187.939
188.512
188.844
188.945
188.825
188.496
187.97
187.257
186.372
185.326
184.132
182.803
181.35
179.786
178.122
176.368
174.535
172.632
170.668
168.648
166.581
164.471
162.322
160.136
157.916
155.661
153.37
151.041
148.671
146.254
143.784
141.257
138.663
135.996
133.246
130.406
127.466
124.418
121.252
117.961
114.536
110.969
107.254
103.385
99.355
95.16
90.798
86.266
81.564
76.693
71.655
66.455
61.098
55.591
49.943
44.166
38.271
32.273
26.187
20.031
13.824
7.586
1.34
-4.891
-11.083
-17.212
-23.251
-29.175
-34.957
-40.572
-45.992
-51.192
-56.146
-60.829
-65.216
-69.284
-73.009
-76.37
-79.349
-81.925
-84.085
-85.814
-87.1
-87.935
-88.309
-88.219
-87.662
-86.637
-85.145
-83.19
-80.78
-77.922
-74.629
-70.915
-66.797
-62.294
-57.428
-52.22
-46.695
-40.879
-34.799
-28.484
-21.963
-15.266
-8.426
-1.475
5.554
12.625
19.702
26.752
33.738
40.628
47.391
53.996
60.414
66.623
72.598
78.319
83.767
88.921
93.761
98.266
102.42
106.207
109.616
112.639
115.269
117.504
119.353
120.82
121.914
122.638
122.985
122.955
122.559
121.806
120.719
119.327
117.659
115.76
113.689
111.499
109.246
106.968
104.675
102.378
100.096
97.844
95.659
93.57
91.575
89.681
87.891
86.189
84.564
82.963
81.289
79.46
77.401
75.058
72.428
69.499
66.244
62.684
58.813
54.613
50.186
45.653
41.181
37.077
33.619
31.046
29.639
29.619
30.98
33.573
37.005
40.587
43.706
45.847
46.727
46.418
45.319
44.109
43.774
45.704
51.344
61.992
78.55
101.252
129.593
162.71
198.945
235.435
269.709
299.527
323.194
340.608
349.836
347.007
329.176
294.14
243.709
183.716
118.607
51.091
-17.342
-85.445
-148.856
-200.159
-232.724
-243.745
-233.657
-206.627
-169.85
-129.044
-90.717
-62.018
-44.993
-40.063
-44.959
-52.834
-59.765
-63.954
-64.831
-65.054
-66.053
-67.405
-68.219
-66.952
-63.069
-57.225
-50.455
-43.818
-37.754
-32.357
-27.782
-24.062
-21.201
-19.107
-17.406
-15.702
-13.801
-11.61
-9.125
-6.404
-3.451
-0.268
3.073
6.488
9.9
13.245
16.504
19.661
22.678
25.498
28.05
30.274
32.135
33.61
34.685
35.353
35.6
35.424
34.832
33.831
32.43
30.637
28.456
25.894
22.971
19.707
16.13
12.269
8.146
3.783
-0.795
-5.566
-10.504
-15.587
-20.792
-26.094
-31.466
-36.878
-42.299
-47.7
-53.051
-58.324
-63.489
-68.518
-73.386
-78.068
-82.539
-86.778
-90.761
-94.469
-97.883
-100.985
-103.76
-106.194
-108.275
-109.993
-111.34
-112.31
-112.901
-113.108
-112.933
-112.375
-111.44
-110.133
-108.46
-106.431
-104.056
-101.347
-98.32
-94.99
-91.373
-87.489
-83.356
-78.996
-74.429
-69.678
-64.765
-59.712
-54.543
-49.28
-43.946
-38.563
-33.154
-27.74
-22.342
-16.979
-11.672
-6.438
-1.295
3.741
8.655
13.434
18.064
22.534
26.836
30.959
34.898
38.646
42.2
45.557
48.716
51.676
54.439
57.008
59.387
61.581
63.595
65.437
67.115
68.636
70.011
71.248
72.356
73.347
74.228
75.01
75.703
76.314
76.854
77.328
77.746
78.114
78.437
78.722
78.972
79.191
79.383
79.548
79.687
79.801
79.889
79.948
79.977
79.971
79.927
79.84
79.705
79.515
79.265
78.947
78.554
78.079
77.514
76.853
76.087
75.211
74.217
73.098
71.851
70.469
68.948
67.284
65.474
63.517
61.411
59.154
56.749
54.196
51.496
48.655
45.675
42.562
39.321
35.959
32.483
28.9
25.219
21.447
17.594
13.668
9.679
5.634
1.544
-2.583
-6.737
-10.911
-15.095
-19.283
-23.467
-27.64
-31.797
-35.931
-40.037
-44.111
-48.148
-52.144
-56.096
-60.001
-63.857
-67.662
-71.417
-75.12
-78.774
-82.38
-85.94
-89.458
-92.936
-96.376
-99.782
-103.156
-106.5
-109.816
-113.106
-116.372
-119.615
-122.835
-126.033
-129.209
-132.361
-135.488
-138.585
-141.648
-144.672
-147.651
-150.578
-153.448
-156.253
-158.988
-161.646
-164.217
-166.692
-169.061
-171.31
-173.426
-175.391
-177.188
-178.801
-180.214
-181.414
-182.387
-183.123
-183.61
-183.841
-183.81
-183.515
-182.954
-182.128
-181.04
-179.695
-178.095
-176.248
-174.157
-171.82
-169.235
-166.397
-163.302
-159.942
-156.31
-152.394
-148.171
-143.616
-138.7
-133.384
-127.636
-121.445
-114.813
-107.762
-100.351
-92.634
-84.702
-76.69
-68.66
-60.615
-52.505
-44.192
-35.599
-26.763
-17.65
-8.184
1.474
11.003
19.864
27.278
32.734
36.038
36.923
35.137
30.883
24.758
17.886
11.897
8.095
7.476
11.227
20.544
36.114
57.958
85.219
116.378
149.959
184.261
216.994
245.507
267.312
280.525
283.995
277.032
259.12
231.037
195.109
153.627
108.834
62.079
13.41
-34.077
-75.047
-105.108
-119.77
-119.071
-107.481
-88.573
-66.726
-45.035
-23.79
-3.861
14.148
29.833
41.723
48.741
50.973
49.365
45.626
41.447
37.716
34.759
32.911
32.653
34.175
37.265
41.265
45.25
48.715
51.568
53.766
55.247
55.99
56.002
55.475
54.795
54.19
53.725
53.408
53.19
53.051
53.02
53.084
53.178
53.25
53.255
53.164
52.974
52.662
52.206
51.595
50.82
49.881
48.794
47.576
46.25
44.844
43.375
41.856
40.301
38.724
37.144
35.581
34.055
32.585
31.192
29.897
28.721
27.682
26.79
26.056
25.486
25.083
24.854
24.803
24.934
25.252
25.758
26.453
27.337
28.409
29.664
31.096
32.696
34.453
36.358
38.399
40.564
42.84
45.215
47.676
50.209
52.801
55.439
58.109
60.797
63.489
66.173
68.836
71.464
74.047
76.574
79.036
81.424
83.731
85.949
88.075
90.102
92.029
93.852
95.571
97.184
98.694
100.101
101.408
102.621
103.743
104.781
105.74
106.628
107.452
108.219
108.937
109.614
110.258
110.877
111.478
112.071
112.662
113.26
113.871
114.502
115.159
115.848
116.574
117.34
118.151
119.009
119.915
120.87
121.875
122.929
124.031
125.178
126.367
127.595
128.858
130.149
131.463
132.794
134.134
135.475
136.81
138.13
139.426
140.689
141.908
143.074
144.176
145.204
146.147
146.994
147.734
148.356
148.85
149.205
149.41
149.456
149.334
149.034
148.548
147.868
146.987
145.897
144.594
143.071
141.323
139.349
137.143
134.706
132.035
129.131
125.994
122.626
119.03
115.208
111.166
106.909
102.443
97.776
92.917
87.874
82.659
77.284
71.761
66.102
60.322
54.436
48.458
42.405
36.292
30.136
23.955
17.767
11.589
5.44
-0.663
-6.702
-12.659
-18.518
-24.26
-29.871
-35.334
-40.634
-45.754
-50.68
-55.399
-59.895
-64.156
-68.17
-71.926
-75.413
-78.624
-81.551
-84.187
-86.528
-88.57
-90.309
-91.744
-92.872
-93.695
-94.214
-94.433
-94.357
-93.993
-93.351
-92.439
-91.268
-89.85
-88.199
-86.326
-84.245
-81.97
-79.517
-76.902
-74.143
-71.258
-68.269
-65.195
-62.06
-58.887
-55.698
-52.515
-49.36
-46.252
-43.213
-40.261
-37.417
-34.697
-32.118
-29.695
-27.445
-25.384
-23.526
-21.883
-20.466
-19.283
-18.341
-17.647
-17.209
-17.027
-17.103
-17.437
-18.038
-18.917
-20.092
-21.576
-23.376
-25.494
-27.923
-30.644
-33.629
-36.842
-40.232
-43.758
-47.386
-51.088
-54.854
-58.678
-62.536
-66.392
-70.182
-73.826
-77.257
-80.435
-83.335
-85.986
-88.448
-90.792
-93.149
-95.679
-98.468
-101.513
-104.684
-107.705
-110.329
-112.434
-113.916
-114.653
-114.689
-114.294
-114.01
-114.676
-117.058
-121.557
-128.402
-137.808
-149.614
-163.14
-177.223
-190.079
-199.844
-205.148
-204.692
-197.126
-181.702
-158.414
-128.035
-92.365
-53.525
-13.427
25.518
60.505
88.997
108.737
118.243
116.834
104.458
81.872
50.579
12.778
-30.639
-80.154
-134.717
-192.025
-245.915
-287.168
-311.439
-317.642
-308.657
-291.98
-270.967
-248.333
-227.689
-209.762
-197.391
-191.613
-189.631
-189.763
-189.411
-187.295
-184.855
-182.507
-180.655
-179.499
-178.136
-176.37
-174.481
-172.647
-171.332
-170.891
-171.317
-172.549
-174.458
-176.791
-179.336
-181.929
-184.439
-186.774
-188.885
-190.726
-192.265
-193.506
-194.452
-195.105
-195.463
-195.514
-195.258
-194.714
-193.921
-192.922
-191.769
-190.51
-189.172
-187.771
-186.315
-184.806
-183.24
-181.61
-179.902
-178.099
-176.194
-174.185
-172.071
-169.848
-167.509
-165.043
-162.441
-159.693
-156.791
-153.73
-150.507
-147.122
-143.578
-139.88
-136.035
-132.054
-127.943
-123.71
-119.361
-114.902
-110.338
-105.676
-100.925
-96.089
-91.178
-86.2
-81.166
-76.085
-70.969
-65.826
-60.667
-55.501
-50.338
-45.185
-40.053
-34.948
-29.88
-24.856
-19.883
-14.968
-10.119
-5.342
-0.643
3.974
8.505
12.945
17.293
21.545
25.7
29.756
33.711
37.566
41.318
44.968
48.514
51.956
55.294
58.528
61.657
64.682
67.603
70.418
73.127
75.73
78.225
80.61
82.884
85.045
87.089
89.014
90.817
92.492
94.038
95.447
96.716
97.838
98.808
99.619
100.263
100.734
101.025
101.127
101.034
100.737
100.231
99.508
98.561
97.385
95.974
94.324
92.432
90.294
87.909
85.276
82.396
79.271
75.902
72.294
68.452
64.383
60.093
55.593
50.891
46
40.932
35.7
30.319
24.806
19.177
13.452
7.648
1.787
-4.112
-10.026
-15.933
-21.812
-27.639
-33.391
-39.047
-44.582
-49.976
-55.206
-60.25
-65.089
-69.703
-74.074
-78.184
-82.018
-85.561
-88.799
-91.722
-94.317
-96.577
-98.493
-100.059
-101.271
-102.126
-102.622
-102.76
-102.543
-101.973
-101.057
-99.8
-98.211
-96.3
-94.076
-91.552
-88.741
-85.657
-82.316
-78.734
-74.929
-70.918
-66.722
-62.359
-57.848
-53.207
-48.456
-43.613
-38.696
-33.722
-28.71
-23.675
-18.635
-13.606
-8.606
-3.647
1.255
6.087
10.837
15.493
20.047
24.488
28.81
33.004
37.063
40.98
44.748
48.363
51.82
55.116
58.25
61.221
64.03
66.68
69.173
71.511
73.697
75.732
77.619
79.358
80.951
82.397
83.697
84.853
85.869
86.749
87.498
88.12
88.622
89.009
89.286
89.456
89.521
89.481
89.337
89.093
88.751
88.315
87.788
87.174
86.479
85.71
84.869
83.956
82.959
81.866
80.665
79.356
77.935
76.4
74.759
73.027
71.235
69.435
67.666
65.95
64.3
62.712
61.185
59.733
58.362
57.079
55.895
54.812
53.85
53.061
52.447
51.972
51.553
51.028
50.267
49.2
47.743
45.818
43.438
40.663
37.641
34.668
31.953
29.618
27.818
26.597
25.83
25.32
24.708
23.489
21.354
18.073
13.35
7.199
0.05
-7.39
-14.031
-18.561
-19.862
-16.791
-8.023
7.318
29.323
57.446
90.499
126.811
164.462
201.075
233.734
259.716
277.066
284.394
280.735
265.721
240.297
206.872
168.385
127.395
84.567
39.601
-5.846
-47.558
-79.39
-95.586
-93.512
-75.498
-47.077
-14.155
16.904
43.046
63.63
77.707
86.891
91.648
91.679
88.671
82.809
74.821
66.337
57.644
49.678
43.563
39.493
37.479
37.114
37.467
37.761
37.667
37.016
35.696
33.708
31.047
27.739
24.012
20.153
16.295
12.498
8.78
5.097
1.456
-2.11
-5.611
-9.09
-12.581
-16.124
-19.758
-23.48
-27.287
-31.178
-35.142
-39.169
-43.247
-47.349
-51.443
-55.509
-59.533
-63.511
-67.443
-71.323
-75.136
-78.867
-82.498
-86.014
-89.398
-92.633
-95.701
-98.583
-101.267
-103.743
-106.008
-108.055
-109.878
-111.466
-112.813
-113.91
-114.752
-115.332
-115.643
-115.681
-115.442
-114.928
-114.138
-113.076
-111.746
-110.151
-108.297
-106.19
-103.838
-101.248
-98.43
-95.391
-92.143
-88.698
-85.069
-81.269
-77.312
-73.216
-68.995
-64.666
-60.246
-55.751
-51.197
-46.602
-41.981
-37.35
-32.727
-28.126
-23.564
-19.056
-14.617
-10.262
-6.004
-1.856
2.171
6.066
9.82
13.424
16.871
20.154
23.27
26.213
28.981
31.574
33.991
36.234
38.305
40.209
41.952
43.54
44.981
46.285
47.459
48.516
49.466
50.322
51.095
51.798
52.445
53.049
53.624
54.184
54.741
55.311
55.907
56.541
57.226
57.975
58.799
59.708
60.713
61.821
63.041
64.38
65.842
67.431
69.151
71.003
72.986
75.099
77.338
79.7
82.179
84.766
87.455
90.235
93.096
96.027
99.016
102.05
105.114
108.196
111.281
114.354
117.401
120.406
123.354
126.233
129.026
131.721
134.305
136.767
139.093
141.276
143.305
145.173
146.874
148.402
149.755
150.93
151.927
152.749
153.398
153.88
154.202
154.37
154.396
154.291
154.067
153.739
153.321
152.83
152.283
151.699
151.095
150.493
149.91
149.367
148.883
148.478
148.171
147.981
147.925
148.02
148.283
148.728
149.369
150.216
151.281
152.571
154.093
155.851
157.849
160.085
162.558
165.264
168.197
171.349
174.71
178.267
182.004
185.906
189.954
194.127
198.401
202.753
207.156
211.583
216.005
220.394
224.719
228.95
233.055
237.004
240.767
244.314
247.613
250.636
253.354
255.741
257.772
259.422
260.67
261.495
261.88
261.811
261.273
260.256
258.751
256.75
254.25
251.25
247.751
243.759
239.285
234.341
228.949
223.13
216.906
210.303
203.346
196.063
188.483
180.632
172.539
164.231
155.743
147.109
138.364
129.54
120.664
111.763
102.862
93.992
85.188
76.478
67.891
59.463
51.232
43.248
35.57
28.242
21.289
14.741
8.625
2.978
-2.155
-6.752
-10.823
-14.395
-17.51
-20.209
-22.52
-24.504
-26.261
-27.855
-29.297
-30.528
-31.399
-31.796
-31.691
-31.093
-30.009
-28.61
-27.22
-26.22
-26.102
-27.292
-29.985
-34.229
-39.994
-46.775
-53.671
-59.815
-64.275
-66.211
-65.064
-60.244
-51.166
-38.009
-21.574
-2.697
17.657
38.629
59.32
78.102
92.937
102.38
105.377
100.978
88.342
66.295
34.72
-4.472
-48.959
-97.105
-149.183
-206.687
-268.51
-329.513
-381.152
-415.241
-428.605
-423.764
-407.8
-387.96
-368.516
-350.881
-333.878
-316.673
-299.84
-284.691
-273.262
-266.539
-263.969
-264.359
-266.13
-267.865
-268.882
-268.729
-266.802
-262.849
-257.005
-249.632
-241.48
-233.365
-225.658
-218.569
-212.353
-207.06
-202.66
-199.06
-195.895
-192.788
-189.578
-186.192
-182.615
-178.903
-175.06
-171.095
-167.1
-163.17
-159.371
-155.751
-152.31
-149.05
-146
-143.204
-140.716
-138.575
-136.79
-135.363
-134.293
-133.572
-133.192
-133.136
-133.37
-133.866
-134.599
-135.547
-136.693
-138.013
-139.476
-141.05
-142.702
-144.398
-146.111
-147.814
-149.479
-151.081
-152.599
-154.013
-155.305
-156.459
-157.455
-158.277
-158.909
-159.337
-159.548
-159.532
-159.28
-158.787
-158.048
-157.062
-155.831
-154.354
-152.636
-150.681
-148.496
-146.089
-143.467
-140.642
-137.622
-134.422
-131.053
-127.529
-123.864
-120.073
-116.171
-112.173
-108.095
-103.954
-99.764
-95.542
-91.303
-87.063
-82.837
-78.64
-74.487
-70.39
-66.364
-62.422
-58.574
-54.833
-51.208
-47.708
-44.341
-41.115
-38.036
-35.109
-32.338
-29.728
-27.283
-25.004
-22.894
-20.954
-19.185
-17.588
-16.161
-14.904
-13.815
-12.893
-12.133
-11.534
-11.091
-10.8
-10.656
-10.654
-10.788
-11.05
-11.435
-11.933
-12.538
-13.24
-14.03
-14.898
-15.837
-16.834
-17.882
-18.969
-20.085
-21.221
-22.366
-23.509
-24.64
-25.748
-26.823
-27.854
-28.83
-29.742
-30.579
-31.331
-31.99
-32.544
-32.987
-33.31
-33.504
-33.563
-33.481
-33.252
-32.872
-32.337
-31.644
-30.792
-29.781
-28.612
-27.285
-25.805
-24.174
-22.397
-20.481
-18.431
-16.255
-13.962
-11.56
-9.059
-6.47
-3.805
-1.075
1.707
4.528
7.374
10.232
13.088
15.927
18.736
21.501
24.208
26.844
29.394
31.847
34.19
36.412
38.503
40.454
42.256
43.902
45.386
46.703
47.85
48.824
49.623
50.248
50.698
50.976
51.086
51.03
50.815
50.446
49.931
49.278
48.496
47.595
46.584
45.474
44.276
42.999
41.655
40.254
38.807
37.322
35.812
34.284
32.748
31.211
29.68
28.161
26.661
25.182
23.728
22.301
20.902
19.532
18.191
16.876
15.585
14.315
13.06
11.816
10.577
9.338
8.091
6.828
5.541
4.226
2.876
1.483
0.041
-1.455
-3.004
-4.608
-6.263
-7.968
-9.72
-11.515
-13.346
-15.208
-17.096
-19.006
-20.934
-22.876
-24.82
-26.753
-28.661
-30.529
-32.343
-34.089
-35.75
-37.31
-38.756
-40.069
-41.228
-42.206
-42.957
-43.442
-43.621
-43.454
-42.908
-41.962
-40.605
-38.842
-36.69
-34.156
-31.234
-27.918
-24.215
-20.152
-15.778
-11.152
-6.316
-1.316
3.766
8.893
14.071
19.389
25.095
31.459
38.596
46.556
55.373
64.904
74.972
85.299
95.195
103.985
111.422
117.454
122.299
126.53
130.633
135.323
142.035
152.254
167.085
186.792
210.438
236.926
265.304
295.717
329.122
364.276
398.374
425.86
438.545
431.767
404.305
359.214
304.738
247.328
190.826
137.046
85.081
35.861
-7.593
-42.295
-66.217
-79.581
-83.741
-79.68
-66.83
-44.129
-13.04
22.365
55.759
80.579
94.254
98.363
97.229
95.66
96.127
98.359
100.388
100.861
99.658
97.554
96.074
95.911
96.812
98.418
100.158
101.498
102.332
102.588
102.058
100.771
98.866
96.466
93.832
91.244
88.806
86.58
84.629
82.918
81.415
80.099
78.891
77.719
76.55
75.349
74.096
72.779
71.362
69.819
68.138
66.312
64.344
62.246
60.025
57.7
55.295
52.832
50.33
47.803
45.261
42.717
40.186
37.683
35.225
32.824
30.493
28.244
26.088
24.032
22.08
20.234
18.493
16.858
15.333
13.917
12.611
11.417
10.331
9.355
8.487
7.723
7.059
6.489
6.007
5.608
5.287
5.036
4.851
4.725
4.651
4.625
4.639
4.688
4.766
4.864
4.976
5.095
5.216
5.33
5.431
5.513
5.569
5.592
5.577
5.519
5.41
5.246
5.021
4.731
4.371
3.937
3.423
2.827
2.144
1.372
0.507
-0.453
-1.512
-2.672
-3.935
-5.304
-6.779
-8.363
-10.056
-11.86
-13.773
-15.795
-17.925
-20.16
-22.498
-24.935
-27.467
-30.088
-32.793
-35.575
-38.427
-41.341
-44.309
-47.321
-50.367
-53.436
-56.517
-59.597
-62.666
-65.708
-68.711
-71.659
-74.539
-77.335
-80.033
-82.615
-85.067
-87.374
-89.519
-91.487
-93.264
-94.836
-96.188
-97.308
-98.184
-98.805
-99.16
-99.241
-99.039
-98.549
-97.765
-96.682
-95.299
-93.614
-91.626
-89.338
-86.752
-83.872
-80.704
-77.254
-73.53
-69.544
-65.305
-60.826
-56.12
-51.202
-46.087
-40.792
-35.333
-29.73
-23.998
-18.158
-12.227
-6.226
-0.173
5.913
12.013
18.108
24.18
30.211
36.185
42.085
47.896
53.602
59.189
64.642
69.95
75.099
80.077
84.874
89.479
93.884
98.079
102.058
105.815
109.344
112.64
115.7
118.521
121.099
123.434
125.522
127.363
128.956
130.299
131.395
132.243
132.844
133.199
133.308
133.173
132.793
132.168
131.297
130.18
128.817
127.208
125.354
123.256
120.916
118.336
115.517
112.462
109.173
105.652
101.9
97.919
93.711
89.28
84.627
79.757
74.673
69.382
63.892
58.211
52.346
46.306
40.102
33.747
27.254
20.638
13.911
7.086
0.181
-6.786
-13.796
-20.833
-27.879
-34.918
-41.932
-48.897
-55.801
-62.633
-69.389
-76.08
-82.702
-89.244
-95.692
-102.02
-108.201
-114.211
-120.012
-125.552
-130.8
-135.726
-140.319
-144.595
-148.538
-152.117
-155.283
-157.946
-160.045
-161.567
-162.511
-162.91
-162.837
-162.345
-161.556
-160.683
-159.812
-158.943
-157.974
-156.62
-154.694
-152.186
-149.025
-145.13
-140.688
-136.033
-131.756
-128.777
-127.709
-128.768
-132.193
-138.108
-146.143
-155.547
-165.003
-172.621
-176.908
-176.881
-171.403
-159.364
-140.292
-114.321
-82.57
-47.112
-9.727
28.091
64.232
96.21
121.783
138.981
146.814
145.273
134.063
113.009
83.042
45.894
3.805
-40.502
-84.696
-126.806
-164.284
-194.762
-216.98
-230.506
-235.746
-233.864
-226.084
-213.819
-199.211
-184.47
-171.114
-160.07
-151.644
-145.674
-141.964
-140.16
-139.46
-138.893
-137.825
-135.988
-133.433
-130.433
-127.214
-123.964
-120.99
-118.661
-117.185
-116.605
-116.837
-117.666
-118.9
-120.391
-121.972
-123.497
-124.882
-126.057
-126.979
-127.642
-128.034
-128.143
-127.974
-127.525
-126.792
-125.792
-124.549
-123.102
-121.497
-119.786
-118.012
-116.209
-114.394
-112.579
-110.771
-108.969
-107.171
-105.367
-103.543
-101.694
-99.818
-97.911
-95.969
-93.982
-91.939
-89.83
-87.643
-85.369
-83.002
-80.534
-77.965
-75.293
-72.52
-69.651
-66.689
-63.639
-60.503
-57.284
-53.984
-50.605
-47.153
-43.63
-40.042
-36.395
-32.697
-28.956
-25.181
-21.383
-17.569
-13.751
-9.938
-6.138
-2.362
1.381
5.081
8.729
12.315
15.829
19.261
22.603
25.844
28.975
31.988
34.876
37.631
40.246
42.716
45.036
47.202
49.21
51.057
52.743
54.267
55.629
56.832
57.879
58.774
59.524
60.135
60.616
60.976
61.225
61.373
61.432
61.414
61.332
61.199
61.029
60.836
60.634
60.439
60.266
60.13
60.045
60.028
60.091
60.251
60.52
60.911
61.436
62.107
62.935
63.928
65.095
66.442
67.974
69.697
71.611
73.719
76.018
78.508
81.184
84.041
87.072
90.269
93.623
97.122
100.756
104.511
108.373
112.327
116.356
120.445
124.576
128.73
132.89
137.036
141.151
145.216
149.211
153.12
156.924
160.607
164.152
167.543
170.766
173.806
176.653
179.294
181.718
183.919
185.887
187.618
189.106
190.349
191.344
192.09
192.589
192.842
192.852
192.623
192.159
191.468
190.557
189.433
188.104
186.58
184.87
182.983
180.928
178.715
176.352
173.848
171.212
168.451
165.574
162.586
159.495
156.306
153.024
149.653
146.196
142.655
139.034
135.332
131.55
127.688
123.747
119.725
115.622
111.436
107.166
102.81
98.363
93.823
89.186
84.449
79.607
74.659
69.602
64.436
59.161
53.778
48.288
42.694
37
31.211
25.332
19.369
13.328
7.22
1.054
-5.158
-11.402
-17.667
-23.937
-30.195
-36.427
-42.618
-48.751
-54.808
-60.772
-66.622
-72.336
-77.897
-83.281
-88.465
-93.429
-98.149
-102.608
-106.789
-110.676
-114.257
-117.518
-120.447
-123.039
-125.3
-127.238
-128.866
-130.189
-131.198
-131.891
-132.272
-132.334
-132.07
-131.465
-130.498
-129.159
-127.461
-125.417
-123.03
-120.282
-117.129
-113.519
-109.407
-104.79
-99.702
-94.188
-88.303
-82.116
-75.751
-69.389
-63.156
-57.058
-50.973
-44.684
-38.054
-31.103
-23.821
-16.158
-8.293
-0.585
6.391
11.767
14.954
15.782
14.071
9.723
3.164
-4.895
-13.307
-20.369
-24.792
-25.739
-22.119
-12.981
1.959
22.68
48.287
77.075
107.92
139.127
168.17
193.277
212.487
225.055
231.424
229.68
217.777
194.051
158.137
114.053
65.906
16.112
-34.463
-86.377
-137.777
-183.619
-217.907
-236.263
-237.441
-224.173
-201.4
-174.318
-148.437
-127.416
-112.959
-104.922
-101.142
-99.95
-100.138
-101.736
-106.056
-113.323
-123.541
-135.975
-148.718
-160.634
-170.951
-179.14
-185.419
-190.059
-193.151
-194.998
-196.038
-196.582
-196.996
-197.557
-198.3
-199.203
-200.209
-201.156
-201.847
-202.17
-202.045
-201.435
-200.381
-198.925
-197.121
-195.071
-192.884
-190.622
-188.313
-185.96
-183.539
-181.041
-178.469
-175.82
-173.085
-170.264
-167.361
-164.391
-161.373
-158.32
-155.24
-152.133
-149.002
-145.851
-142.686
-139.516
-136.345
-133.18
-130.024
-126.886
-123.772
-120.687
-117.634
-114.616
-111.631
-108.679
-105.762
-102.876
-100.019
-97.191
-94.389
-91.612
-88.86
-86.132
-83.426
-80.742
-78.078
-75.432
-72.8
-70.179
-67.565
-64.953
-62.339
-59.718
-57.085
-54.437
-51.77
-49.08
-46.364
-43.619
-40.843
-38.033
-35.185
-32.299
-29.373
-26.407
-23.398
-20.348
-17.258
-14.128
-10.96
-7.757
-4.522
-1.256
2.037
5.353
8.688
12.036
15.394
18.753
22.108
25.45
28.772
32.063
35.317
38.522
41.669
44.749
47.75
50.664
53.479
56.187
58.778
61.241
63.568
65.751
67.779
69.646
71.345
72.867
74.208
75.362
76.323
77.087
77.651
78.011
78.164
78.111
77.849
77.379
76.701
75.818
74.731
73.444
71.962
70.289
68.43
66.391
64.18
61.804
59.269
56.585
53.759
50.801
47.719
44.522
41.218
37.818
34.33
30.762
27.124
23.424
19.671
15.873
12.039
8.177
4.297
0.406
-3.487
-7.374
-11.247
-15.096
-18.914
-22.693
-26.424
-30.098
-33.708
-37.244
-40.696
-44.058
-47.319
-50.47
-53.503
-56.408
-59.177
-61.802
-64.272
-66.58
-68.714
-70.666
-72.426
-73.984
-75.33
-76.454
-77.347
-77.999
-78.403
-78.551
-78.437
-78.054
-77.395
-76.457
-75.237
-73.729
-71.933
-69.847
-67.472
-64.81
-61.865
-58.645
-55.155
-51.405
-47.405
-43.166
-38.701
-34.024
-29.148
-24.088
-18.862
-13.488
-7.987
-2.381
3.308
9.054
14.829
20.606
26.359
32.062
37.69
43.219
48.626
53.886
58.981
63.889
68.591
73.066
77.292
81.248
84.918
88.288
91.346
94.079
96.477
98.535
100.251
101.627
102.66
103.341
103.657
103.6
103.173
102.383
101.238
99.75
97.937
95.835
93.503
91.002
88.381
85.671
82.885
80.045
77.18
74.32
71.5
68.731
66.017
63.383
60.877
58.527
56.326
54.209
52.042
49.699
47.108
44.194
40.883
37.154
33.046
28.685
24.317
20.171
16.363
13.023
10.295
8.121
6.327
4.608
2.477
-0.352
-3.897
-8.279
-13.656
-19.751
-25.981
-31.389
-34.609
-34.719
-31.205
-23.289
-10.138
8.626
32.99
62.173
94.791
129.386
164.066
196.717
225.128
248.773
269.034
286.142
298.941
303.062
291.858
262.922
217.818
161.012
98.844
34.9
-28.03
-85.946
-133.612
-164.567
-175.479
-165.892
-138.635
-101.005
-59.164
-20.074
8.943
26.602
33.198
31.428
28.005
26.06
26.891
30.985
35.488
38.934
41.586
43.877
47.339
52.676
59.201
65.929
72.004
77.072
81.202
84.499
86.919
88.415
89.15
89.494
89.752
90.072
90.499
90.981
91.514
92.148
92.884
93.675
94.481
95.255
95.971
96.636
97.236
97.736
98.098
98.271
98.22
97.936
97.415
96.66
95.681
94.485
93.083
91.495
89.738
87.826
85.778
83.604
81.319
78.945
76.507
74.032
71.545
69.067
66.614
64.202
61.844
59.553
57.339
55.21
53.172
51.237
49.412
47.707
46.131
44.688
43.383
42.22
41.198
40.318
39.577
38.972
38.496
38.144
37.91
37.786
37.765
37.836
37.99
38.217
38.507
38.846
39.224
39.627
40.043
40.461
40.867
41.25
41.6
41.905
42.155
42.341
42.455
42.489
42.436
42.291
42.049
41.708
41.264
40.718
40.07
39.322
38.48
37.547
36.531
35.439
34.28
33.064
31.803
30.507
29.19
27.864
26.543
25.241
23.973
22.753
21.597
20.518
19.533
18.654
17.896
17.273
16.797
16.48
16.334
16.368
16.593
17.016
17.645
18.484
19.54
20.814
22.31
24.026
25.962
28.115
30.482
33.056
35.831
38.799
41.952
45.278
48.768
52.408
56.188
60.092
64.109
68.222
72.417
76.679
80.993
85.343
89.715
94.092
98.46
102.804
107.111
111.366
115.558
119.672
123.697
127.623
131.439
135.136
138.705
142.14
145.435
148.585
151.586
154.436
157.133
159.678
162.069
164.307
166.395
168.335
170.129
171.78
173.293
174.672
175.922
177.047
178.054
178.947
179.731
180.413
180.996
181.487
181.887
182.203
182.437
182.593
182.676
182.687
182.631
182.507
182.319
182.065
181.744
181.355
180.893
180.355
179.737
179.032
178.236
177.343
176.346
175.239
174.017
172.671
171.195
169.58
167.817
165.899
163.818
161.567
159.136
156.519
153.71
150.706
147.504
144.101
140.496
136.685
132.672
128.459
124.05
119.448
114.658
109.684
104.538
99.231
93.777
88.189
82.48
76.662
70.754
64.777
58.747
52.678
46.575
40.434
34.265
28.087
21.92
15.793
9.735
3.771
-2.054
-7.688
-13.092
-18.236
-23.106
-27.708
-32.026
-36.027
-39.668
-42.878
-45.593
-47.791
-49.468
-50.645
-51.379
-51.731
-51.779
-51.676
-51.578
-51.526
-51.473
-51.255
-50.64
-49.522
-47.934
-45.861
-43.232
-40.161
-36.895
-33.945
-32.063
-31.611
-32.553
-34.852
-38.48
-43.194
-48.557
-53.559
-56.643
-56.852
-53.703
-46.648
-35.194
-18.963
2.276
27.919
56.47
86.976
118.289
148.357
175.687
198.848
216.877
230.541
238.765
238.014
224.682
195.444
151.751
99.104
42.663
-13.961
-71.297
-130.108
-188.026
-239.719
-277.171
-295.273
-293.571
-275.545
-247.712
-216.547
-187.5
-163.846
-147.357
-137.679
-132.313
-129.868
-128.789
-128.322
-129.683
-132.81
-137.166
-142.301
-146.73
-149.368
-149.991
-148.674
-145.93
-142.601
-139.377
-136.583
-134.453
-133.175
-132.758
-133.15
-134.211
-135.599
-136.944
-138.058
-138.845
-139.276
-139.389
-139.197
-138.702
-137.962
-137.057
-136.042
-134.949
-133.796
-132.586
-131.349
-130.137
-128.991
-127.938
-126.993
-126.156
-125.423
-124.793
-124.259
-123.805
-123.42
-123.093
-122.814
-122.578
-122.381
-122.208
-122.048
-121.881
-121.69
-121.462
-121.185
-120.85
-120.45
-119.979
-119.435
-118.818
-118.126
-117.356
-116.506
-115.573
-114.556
-113.455
-112.271
-111.006
-109.665
-108.252
-106.776
-105.244
-103.664
-102.046
-100.397
-98.728
-97.049
-95.37
-93.703
-92.059
-90.449
-88.886
-87.381
-85.947
-84.596
-83.339
-82.188
-81.153
-80.244
-79.47
-78.84
-78.36
-78.037
-77.875
-77.879
-78.05
-78.391
-78.899
-79.575
-80.414
-81.411
-82.562
-83.857
-85.288
-86.844
-88.514
-90.286
-92.146
-94.079
-96.069
-98.102
-100.159
-102.223
-104.278
-106.303
-108.281
-110.192
-112.019
-113.743
-115.345
-116.809
-118.116
-119.253
-120.203
-120.953
-121.49
-121.804
-121.883
-121.721
-121.311
-120.648
-119.727
-118.549
-117.114
-115.423
-113.481
-111.293
-108.866
-106.21
-103.336
-100.254
-96.978
-93.524
-89.907
-86.145
-82.255
-78.258
-74.173
-70.021
-65.825
-61.604
-57.382
-53.179
-49.018
-44.919
-40.902
-36.986
-33.191
-29.534
-26.031
-22.698
-19.548
-16.594
-13.846
-11.313
-9.002
-6.918
-5.063
-3.439
-2.046
-0.881
0.06
0.783
1.294
1.602
1.718
1.654
1.424
1.043
0.527
-0.106
-0.837
-1.647
-2.518
-3.429
-4.361
-5.296
-6.214
-7.097
-7.927
-8.686
-9.359
-9.927
-10.377
-10.694
-10.867
-10.883
-10.735
-10.418
-9.925
-9.254
-8.405
-7.377
-6.172
-4.795
-3.248
-1.54
0.322
2.327
4.464
6.716
9.069
11.503
13.998
16.531
19.085
21.638
24.169
26.66
29.093
31.451
33.72
35.883
37.92
39.813
41.541
43.084
44.425
45.549
46.441
47.092
47.495
47.648
47.556
47.219
46.635
45.8
44.701
43.327
41.686
39.785
37.635
35.256
32.675
29.928
27.076
24.163
21.219
18.268
15.311
12.349
9.396
6.467
3.583
0.775
-1.946
-4.569
-7.068
-9.442
-11.699
-13.871
-16.05
-18.322
-20.74
-23.349
-26.17
-29.187
-32.402
-35.829
-39.396
-43.01
-46.533
-49.746
-52.466
-54.563
-55.902
-56.328
-55.848
-54.595
-52.788
-50.871
-49.252
-48.249
-48.109
-48.866
-50.119
-51.162
-51.283
-49.573
-45.139
-37.057
-24.402
-6.747
15.594
41.694
70.597
101.311
132.598
162.601
188.969
209.614
222.914
227.927
223.782
209.193
184.03
149.997
109.272
64.353
16.023
-37.177
-94.024
-150.695
-200.797
-235.8
-251.84
-248.992
-229.824
-200.373
-165.518
-129.793
-98.693
-75.31
-61.063
-55.395
-54.831
-56.327
-58.155
-59.734
-62.19
-66.156
-71.331
-76.943
-81.45
-83.971
-84.609
-83.773
-82.303
-80.995
-80.074
-79.63
-79.806
-80.569
-81.877
-83.688
-85.734
-87.689
-89.408
-90.819
-91.898
-92.714
-93.285
-93.595
-93.692
-93.64
-93.496
-93.319
-93.141
-92.973
-92.828
-92.716
-92.64
-92.604
-92.598
-92.602
-92.593
-92.543
-92.433
-92.254
-91.994
-91.642
-91.18
-90.589
-89.85
-88.944
-87.853
-86.558
-85.044
-83.293
-81.295
-79.041
-76.529
-73.756
-70.719
-67.415
-63.841
-59.993
-55.872
-51.478
-46.815
-41.887
-36.702
-31.27
-25.605
-19.723
-13.643
-7.382
-0.962
5.596
12.27
19.035
25.867
32.739
39.627
46.503
53.339
60.108
66.781
73.331
79.731
85.953
91.971
97.761
103.299
108.56
113.525
118.173
122.484
126.441
130.028
133.232
136.039
138.438
140.423
141.988
143.13
143.848
144.145
144.024
143.494
142.563
141.241
139.542
137.479
135.066
132.321
129.26
125.904
122.269
118.378
114.251
109.91
105.377
100.675
95.824
90.847
85.764
80.597
75.366
70.091
64.79
59.483
54.188
48.921
43.7
38.54
33.452
28.448
23.537
18.727
14.021
9.422
4.929
0.54
-3.747
-7.935
-12.026
-16.027
-19.942
-23.775
-27.529
-31.21
-34.827
-38.39
-41.913
-45.409
-48.891
-52.373
-55.873
-59.404
-62.982
-66.615
-70.308
-74.07
-77.912
-81.848
-85.9
-90.079
-94.384
-98.817
-103.374
-108.044
-112.805
-117.622
-122.436
-127.207
-131.911
-136.533
-141.078
-145.546
-149.93
-154.228
-158.442
-162.572
-166.632
-170.619
-174.518
-178.341
-182.116
-185.902
-189.797
-193.856
-198.084
-202.469
-206.963
-211.504
-216.027
-220.433
-224.59
-228.385
-231.713
-234.493
-236.683
-238.2
-238.94
-238.77
-237.518
-235.068
-231.364
-226.373
-220.098
-212.585
-203.895
-194.155
-183.551
-172.237
-160.345
-147.983
-135.22
-122.155
-108.916
-95.64
-82.492
-69.607
-57.082
-45.01
-33.471
-22.508
-12.151
-2.375
6.894
15.703
24.073
32.006
39.471
46.447
52.926
58.902
64.379
69.357
73.827
77.794
81.274
84.282
86.842
88.946
90.554
91.642
92.196
92.228
91.774
90.865
89.523
87.758
85.579
82.991
80.006
76.609
72.754
68.367
63.351
57.654
51.271
44.206
36.467
28.024
18.822
8.832
-1.92
-13.354
-25.354
-37.814
-50.67
-63.774
-76.805
-89.314
-100.82
-111.021
-119.854
-127.299
-133.143
-137.113
-139.17
-139.615
-138.99
-137.672
-135.536
-132.189
-127.537
-121.735
-114.735
-106.012
-94.633
-79.579
-60.369
-37.249
-10.329
20.004
52.383
85.098
116.476
145.889
173.785
199.868
221.115
231.553
226.162
203.585
166.936
122.73
75.719
28.389
-17.236
-58.551
-90.106
-106.866
-106.9
-90.783
-62.367
-26.186
14.194
54.19
89.026
115.306
130.914
136.608
136.437
134.318
133.008
133.779
135.289
136.209
136.374
136.318
137.548
140.89
145.992
152
157.876
163.12
167.764
171.866
175.347
178.116
180.154
181.615
182.804
183.884
184.854
185.675
186.305
186.749
187.045
187.196
187.143
186.831
186.217
185.26
183.955
182.3
180.288
177.924
175.219
172.186
168.856
165.266
161.444
157.41
153.178
148.755
144.156
139.406
134.531
129.561
124.523
119.445
114.358
109.295
104.288
99.367
94.554
89.871
85.337
80.975
76.808
72.859
69.15
65.699
62.526
59.649
57.085
54.848
52.948
51.392
50.186
49.335
48.84
48.703
48.921
49.492
50.41
51.671
53.266
55.186
57.42
59.955
62.778
65.874
69.226
72.815
76.625
80.636
84.828
89.182
93.679
98.299
103.021
107.826
112.693
117.603
122.536
127.473
132.393
137.278
142.112
146.876
151.554
156.131
160.591
164.921
169.106
173.135
176.995
180.673
184.16
187.445
190.519
193.372
195.997
198.386
200.533
202.431
204.075
205.459
206.58
207.433
208.013
208.319
208.347
208.095
207.561
206.744
205.643
204.259
202.591
200.642
198.413
195.906
193.125
190.074
186.758
183.183
179.355
175.281
170.971
166.433
161.679
156.719
151.566
146.233
140.735
135.086
129.304
123.404
117.406
111.327
105.187
99.006
92.806
86.609
80.436
74.31
68.254
62.292
56.448
50.745
45.208
39.859
34.724
29.825
25.185
20.827
16.771
13.038
9.648
6.619
3.967
1.708
-0.144
-1.578
-2.583
-3.152
-3.277
-2.954
-2.182
-0.961
0.707
2.818
5.364
8.337
11.725
15.515
19.691
24.236
29.13
34.351
39.875
45.675
51.725
57.994
64.45
71.059
77.787
84.598
91.455
98.32
105.154
111.919
118.576
125.086
131.413
137.517
143.363
148.915
154.138
159
163.47
167.519
171.117
174.241
176.868
178.978
180.555
181.583
182.05
181.946
181.266
180.008
178.169
175.753
172.766
169.222
165.138
160.537
155.442
149.88
143.882
137.479
130.707
123.598
116.186
108.502
100.583
92.467
84.2
75.822
67.372
58.889
50.41
41.971
33.612
25.37
17.275
9.366
1.683
-5.728
-12.809
-19.507
-25.778
-31.585
-36.899
-41.695
-45.953
-49.65
-52.773
-55.315
-57.278
-58.685
-59.562
-59.958
-59.923
-59.511
-58.82
-57.888
-56.699
-55.19
-53.212
-50.613
-47.317
-43.288
-38.492
-33.116
-27.468
-21.876
-16.858
-12.867
-10.17
-8.952
-9.176
-10.311
-11.593
-12.33
-11.588
-8.447
-2.096
8.283
23.039
41.788
63.799
88.344
114.459
140.361
163.39
181.453
193.224
198.726
199.504
194.209
179.526
153.603
114.979
66.039
12.962
-41.024
-94.418
-145.087
-192.619
-233.483
-260.27
-269.406
-258.772
-229.043
-188.086
-142.941
-100.469
-68.21
-47.316
-37.106
-35.452
-36.676
-38.215
-39.2
-39.426
-41.081
-44.683
-49.268
-53.799
-56.713
-57.419
-56.417
-54.334
-51.884
-49.717
-48.139
-47.395
-47.654
-48.855
-50.86
-53.463
-56.406
-59.439
-62.412
-65.242
-67.897
-70.414
-72.829
-75.172
-77.494
-79.837
-82.231
-84.69
-87.224
-89.842
-92.545
-95.331
-98.191
-101.109
-104.065
-107.038
-109.998
-112.91
-115.747
-118.485
-121.105
-123.594
-125.936
-128.111
-130.103
-131.893
-133.47
-134.822
-135.94
-136.818
-137.454
-137.85
-138.015
-137.956
-137.683
-137.206
-136.534
-135.678
-134.652
-133.47
-132.148
-130.706
-129.166
-127.554
-125.893
-124.206
-122.517
-120.851
-119.231
-117.679
-116.216
-114.856
-113.619
-112.528
-111.608
-110.883
-110.364
-110.047
-109.928
-110.013
-110.295
-110.77
-111.427
-112.238
-113.197
-114.312
-115.592
-117.048
-118.67
-120.426
-122.289
-124.226
-126.224
-128.292
-130.423
-132.591
-134.785
-137.006
-139.26
-141.578
-143.936
-146.255
-148.466
-150.499
-152.314
-153.905
-155.254
-156.334
-157.117
-157.554
-157.624
-157.33
-156.646
-155.528
-153.928
-151.776
-149.076
-145.918
-142.371
-138.502
-134.364
-129.973
-125.371
-120.621
-115.776
-110.884
-105.984
-101.094
-96.271
-91.597
-87.156
-83.046
-79.31
-75.924
-72.887
-70.201
-67.876
-65.941
-64.405
-63.254
-62.496
-62.154
-62.248
-62.805
-63.826
-65.287
-67.164
-69.428
-72.069
-75.098
-78.515
-82.309
-86.467
-90.968
-95.793
-100.934
-106.361
-112.031
-117.899
-123.92
-130.052
-136.263
-142.517
-148.773
-154.99
-161.123
-167.129
-172.97
-178.605
-183.994
-189.098
-193.878
-198.302
-202.344
-205.98
-209.189
-211.95
-214.247
-216.065
-217.397
-218.237
-218.578
-218.422
-217.77
-216.629
-215.009
-212.924
-210.389
-207.421
-204.043
-200.278
-196.151
-191.691
-186.927
-181.891
-176.617
-171.14
-165.496
-159.722
-153.854
-147.93
-141.988
-136.065
-130.197
-124.419
-118.766
-113.272
-107.967
-102.884
-98.049
-93.49
-89.23
-85.292
-81.695
-78.455
-75.586
-73.099
-71.002
-69.304
-68.009
-67.122
-66.642
-66.567
-66.894
-67.614
-68.714
-70.179
-71.988
-74.118
-76.548
-79.253
-82.209
-85.394
-88.783
-92.356
-96.091
-99.965
-103.953
-108.03
-112.171
-116.359
-120.573
-124.796
-129.009
-133.192
-137.323
-141.378
-145.337
-149.166
-152.827
-156.277
-159.462
-162.348
-164.901
-167.081
-168.848
-170.145
-170.926
-171.179
-170.911
-170.147
-168.929
-167.287
-165.275
-163.005
-160.523
-157.829
-154.88
-151.5
-147.55
-142.991
-137.732
-131.746
-125.25
-118.57
-112.226
-106.974
-103.335
-101.674
-102.4
-105.515
-110.553
-116.739
-122.76
-127.084
-128.518
-125.808
-117.693
-103.57
-83.233
-57.034
-26.244
7.749
43.069
76.743
106.565
130.925
148.812
161.036
166.231
161.577
145.723
116.73
76.396
29.195
-23.124
-77.363
-130.483
-179.937
-218.409
-239.698
-240.446
-218.891
-180.722
-134.588
-89.028
-53.509
-30.995
-19.615
-15.723
-12.832
-7.981
-1.656
5.165
9.96
11.76
11.702
10.869
10.67
12.178
15.489
20.338
26.301
32.86
39.517
46.072
52.469
58.539
64.212
69.481
74.334
78.947
83.591
88.38
93.338
98.466
103.698
109.004
114.394
119.813
125.166
130.376
135.369
140.097
144.557
148.744
152.642
156.243
159.536
162.518
165.205
167.615
169.756
171.628
173.229
174.558
175.625
176.447
177.037
177.409
177.576
177.553
177.357
177.008
176.522
175.916
175.201
174.39
173.497
172.538
171.532
170.495
169.443
168.392
167.356
166.351
165.388
164.478
163.628
162.844
162.131
161.494
160.935
160.458
160.063
159.752
159.525
159.381
159.319
159.335
159.428
159.592
159.823
160.115
160.462
160.856
161.292
161.762
162.258
162.772
163.297
163.823
164.343
164.848
165.331
165.783
166.198
166.568
166.888
167.152
167.357
167.498
167.573
167.579
167.514
167.377
167.166
166.879
166.518
166.08
165.565
164.973
164.305
163.558
162.735
161.833
160.853
159.795
158.658
157.442
156.148
154.775
153.324
151.795
150.188
148.504
146.744
144.906
142.993
141.005
138.941
136.803
134.591
132.305
129.946
127.515
125.013
122.441
119.8
117.092
114.318
111.48
108.581
105.625
102.614
99.552
96.445
93.296
90.111
86.896
83.656
80.397
77.125
73.846
70.565
67.289
64.023
60.773
57.545
54.344
51.176
48.046
44.958
41.916
38.926
35.99
33.113
30.297
27.546
24.864
22.253
19.717
17.258
14.879
12.582
10.369
8.241
6.2
4.247
2.383
0.608
-1.076
-2.669
-4.168
-5.572
-6.88
-8.088
-9.194
-10.197
-11.093
-11.88
-12.555
-13.115
-13.556
-13.874
-14.064
-14.122
-14.041
-13.818
-13.447
-12.924
-12.247
-11.412
-10.419
-9.266
-7.951
-6.474
-4.835
-3.033
-1.07
1.054
3.336
5.774
8.361
11.092
13.959
16.95
20.057
23.267
26.567
29.944
33.385
36.877
40.407
43.962
47.525
51.08
54.611
58.102
61.534
64.888
68.145
71.286
74.297
77.164
79.874
82.415
84.775
86.941
88.907
90.66
92.184
93.465
94.479
95.208
95.646
95.79
95.645
95.232
94.567
93.672
92.587
91.338
89.941
88.408
86.728
84.899
82.941
80.878
78.752
76.613
74.489
72.415
70.412
68.451
66.477
64.413
62.134
59.554
56.626
53.298
49.629
45.756
41.813
37.985
34.437
31.235
28.432
26.086
24.038
22.008
19.722
16.853
13.21
8.739
3.431
-2.683
-9.225
-15.429
-20.5
-23.667
-24.205
-21.413
-14.683
-3.44
12.488
32.483
55.749
81.689
108.978
135.333
159.106
178.755
193.448
204.441
210.51
207.72
193.274
164.78
123.432
75.009
23.278
-30.113
-83.383
-135.485
-181.957
-215.464
-231.832
-229.538
-210.384
-179.459
-141.027
-99.216
-59.501
-27.175
-5.922
2.782
1.671
-3.513
-9.107
-13.33
-16.431
-20.863
-27.028
-33.742
-39.927
-44.089
-45.759
-45.622
-44.298
-42.431
-40.793
-39.814
-39.679
-40.53
-42.306
-44.838
-48.005
-51.611
-55.368
-59.112
-62.775
-66.329
-69.828
-73.307
-76.763
-80.223
-83.736
-87.331
-91.032
-94.851
-98.765
-102.749
-106.788
-110.863
-114.953
-119.032
-123.064
-127.008
-130.836
-134.526
-138.059
-141.416
-144.575
-147.514
-150.209
-152.635
-154.772
-156.598
-158.094
-159.243
-160.031
-160.447
-160.487
-160.149
-159.432
-158.337
-156.862
-155.01
-152.783
-150.189
-147.233
-143.926
-140.28
-136.308
-132.029
-127.461
-122.625
-117.542
-112.234
-106.722
-101.03
-95.179
-89.195
-83.099
-76.915
-70.668
-64.381
-58.077
-51.78
-45.513
-39.298
-33.155
-27.104
-21.164
-15.353
-9.685
-4.177
1.158
6.31
11.266
16.018
20.557
24.878
28.975
32.844
36.484
39.894
43.073
46.023
48.747
51.247
53.527
55.593
57.449
59.101
60.555
61.818
62.898
63.802
64.537
65.114
65.538
65.82
65.968
65.991
65.897
65.694
65.392
64.999
64.521
63.968
63.348
62.667
61.934
61.155
60.339
59.492
58.62
57.733
56.836
55.936
55.041
54.157
53.291
52.451
51.643
50.874
50.149
49.476
48.861
48.308
47.824
47.414
47.081
46.83
46.665
46.588
46.601
46.708
46.908
47.203
47.593
48.077
48.653
49.32
50.076
50.915
51.835
52.83
53.894
55.021
56.203
57.432
58.699
59.996
61.313
62.64
63.966
65.281
66.575
67.838
69.059
70.229
71.339
72.38
73.343
74.222
75.01
75.701
76.29
76.774
77.148
77.413
77.565
77.607
77.539
77.363
77.083
76.704
76.231
75.672
75.034
74.327
73.56
72.746
71.895
71.021
70.136
69.255
68.391
67.559
66.771
66.041
65.38
64.801
64.314
63.93
63.659
63.507
63.482
63.589
63.835
64.222
64.752
65.426
66.243
67.201
68.296
69.524
70.877
72.348
73.927
75.606
77.373
79.217
81.125
83.081
85.071
87.077
89.083
91.07
93.021
94.92
96.754
98.512
100.184
101.758
103.225
104.576
105.802
106.894
107.84
108.625
109.238
109.667
109.91
109.962
109.818
109.47
108.911
108.136
107.143
105.932
104.505
102.859
100.999
98.94
96.709
94.341
91.872
89.324
86.714
84.065
81.396
78.737
76.12
73.546
71.011
68.498
65.977
63.415
60.786
58.038
55.084
51.894
48.485
44.938
41.434
38.129
35.111
32.434
30.125
28.021
25.836
23.234
19.698
14.763
8.135
-0.356
-10.625
-22.062
-33.775
-44.958
-54.563
-61.494
-64.76
-63.392
-56.903
-45.712
-30.646
-12.378
8.06
28.741
47.011
60.081
65.919
64.984
58.827
47.36
29.432
1.858
-38.613
-92.459
-158.74
-233.357
-309.818
-380.656
-436.66
-471.741
-484.796
-478.528
-460.502
-438.729
-417.776
-400.373
-386.41
-373.586
-361.396
-350.374
-341.444
-336.26
-334.99
-336.132
-337.952
-339.264
-339.545
-338.774
-336.958
-333.782
-329.204
-323.802
-318.469
-313.867
-310.245
-307.543
-305.566
-304.264
-303.578
-303.241
-302.855
-302.085
-300.74
-298.772
-296.219
-293.075
-289.29
-284.845
-279.726
-273.907
-267.406
-260.25
-252.492
-244.244
-235.615
-226.698
-217.584
-208.342
-199.025
-189.673
-180.303
-170.907
-161.492
-152.072
-142.684
-133.386
-124.211
-115.173
-106.268
-97.47
-88.761
-80.13
-71.56
-63.035
-54.55
-46.102
-37.707
-29.394
-21.184
-13.089
-5.117
2.734
10.461
18.059
25.519
32.835
39.998
47.002
53.838
60.494
66.959
73.228
79.298
85.17
90.845
96.321
101.595
106.666
111.532
116.191
120.639
124.871
128.881
132.667
136.223
139.549
142.64
145.494
148.107
150.478
152.603
154.482
156.109
157.484
158.604
159.465
160.067
160.407
160.485
160.299
159.851
159.14
158.169
156.939
155.455
153.72
151.739
149.517
147.064
144.385
141.491
138.393
135.102
131.632
127.999
124.217
120.304
116.276
112.153
107.953
103.696
99.402
95.091
90.785
86.505
82.271
78.107
74.032
70.069
66.237
62.557
59.048
55.728
52.616
49.727
47.076
44.678
42.545
40.686
39.112
37.829
36.842
36.154
35.767
35.678
35.887
36.386
37.17
38.229
39.554
41.13
42.945
44.982
47.225
49.656
52.256
55.004
57.879
60.86
63.925
67.052
70.217
73.399
76.575
79.723
82.821
85.85
88.788
91.618
94.321
96.881
99.284
101.514
103.561
105.413
107.062
108.501
109.724
110.727
111.508
112.068
112.409
112.533
112.446
112.154
111.664
110.985
110.128
109.103
107.923
106.599
105.146
103.576
101.906
100.151
98.325
96.444
94.522
92.576
90.618
88.665
86.727
84.819
82.951
81.135
79.383
77.704
76.107
74.6
73.189
71.88
70.678
69.585
68.602
67.729
66.964
66.304
65.748
65.291
64.927
64.65
64.453
64.33
64.271
64.266
64.305
64.375
64.466
64.566
64.662
64.74
64.787
64.791
64.743
64.632
64.448
64.182
63.822
63.361
62.793
62.107
61.293
60.34
59.241
57.994
56.601
55.065
53.389
51.577
49.635
47.576
45.411
43.144
40.773
38.288
35.692
33.006
30.261
27.486
24.704
21.94
19.221
16.587
14.07
11.684
9.421
7.268
5.23
3.337
1.65
0.226
-0.905
-1.739
-2.287
-2.559
-2.566
-2.34
-1.95
-1.471
-0.939
-0.35
0.341
1.155
2.084
3.101
4.169
5.248
6.288
7.281
8.312
9.57
11.287
13.645
16.725
20.556
25.26
30.899
37.264
43.895
50.192
55.741
60.625
65.21
69.605
73.797
78.055
83.106
90.129
100.193
113.566
129.799
148.565
169.759
192.874
216.609
238.831
256.945
268.793
273.097
268.521
253.971
229.553
196.042
155.161
107.987
54.036
-5.692
-68.408
-127.837
-174.654
-203.956
-215.194
-211.168
-199.107
-182.929
-162.991
-141.257
-118.832
-98.216
-84.619
-79.406
-80.711
-86.408
-92.518
-97.071
-101.122
-104.812
-108.286
-111.173
-111.93
-109.975
-105.658
-99.584
-92.645
-85.662
-78.998
-72.897
-67.628
-63.239
-59.667
-56.765
-54.229
-51.726
-49.078
-46.212
-43.095
-39.769
-36.251
-32.553
-28.744
-24.911
-21.125
-17.432
-13.844
-10.369
-7.031
-3.879
-0.976
1.627
3.902
5.831
7.402
8.603
9.421
9.853
9.915
9.619
8.979
8.006
6.706
5.095
3.195
1.032
-1.363
-3.961
-6.737
-9.666
-12.718
-15.871
-19.096
-22.371
-25.675
-28.983
-32.272
-35.516
-38.691
-41.772
-44.74
-47.572
-50.248
-52.749
-55.061
-57.167
-59.056
-60.717
-62.139
-63.315
-64.239
-64.907
-65.317
-65.468
-65.363
-65.006
-64.403
-63.561
-62.492
-61.205
-59.713
-58.031
-56.175
-54.16
-52.004
-49.727
-47.346
-44.882
-42.356
-39.788
-37.199
-34.61
-32.04
-29.51
-27.039
-24.648
-22.353
-20.172
-18.12
-16.213
-14.465
-12.887
-11.49
-10.283
-9.274
-8.469
-7.872
-7.485
-7.308
-7.341
-7.579
-8.018
-8.651
-9.47
-10.464
-11.622
-12.93
-14.374
-15.939
-17.608
-19.363
-21.187
-23.06
-24.964
-26.879
-28.785
-30.664
-32.495
-34.26
-35.941
-37.52
-38.98
-40.306
-41.483
-42.498
-43.339
-43.996
-44.459
-44.722
-44.78
-44.629
-44.268
-43.697
-42.919
-41.939
-40.762
-39.398
-37.857
-36.15
-34.291
-32.296
-30.179
-27.96
-25.657
-23.288
-20.875
-18.438
-15.999
-13.578
-11.198
-8.88
-6.645
-4.513
-2.505
-0.64
1.064
2.591
3.924
5.048
5.952
6.623
7.051
7.23
7.152
6.815
6.215
5.353
4.23
2.852
1.224
-0.645
-2.747
-5.07
-7.601
-10.326
-13.229
-16.295
-19.504
-22.839
-26.281
-29.807
-33.399
-37.035
-40.695
-44.357
-48.002
-51.609
-55.16
-58.635
-62.018
-65.291
-68.439
-71.447
-74.302
-76.99
-79.502
-81.829
-83.964
-85.901
-87.637
-89.171
-90.503
-91.636
-92.574
-93.321
-93.884
-94.272
-94.493
-94.558
-94.48
-94.272
-93.95
-93.53
-93.031
-92.471
-91.869
-91.244
-90.616
-90.002
-89.424
-88.899
-88.446
-88.083
-87.83
-87.707
-87.731
-87.922
-88.295
-88.868
-89.657
-90.676
-91.936
-93.446
-95.211
-97.235
-99.525
-102.083
-104.908
-108.003
-111.364
-114.99
-118.881
-123.03
-127.427
-132.059
-136.911
-141.966
-147.209
-152.621
-158.181
-163.873
-169.682
-175.6
-181.62
-187.73
-193.906
-200.121
-206.338
-212.519
-218.625
-224.612
-230.423
-236.017
-241.364
-246.45
-251.276
-255.823
-260.055
-263.93
-267.404
-270.445
-273.041
-275.177
-276.838
-278.048
-278.869
-279.4
-279.784
-280.104
-280.359
-280.557
-280.704
-280.786
-280.808
-280.663
-280.117
-279.064
-277.556
-275.656
-273.46
-271.027
-268.279
-265.382
-262.807
-260.792
-259.351
-258.308
-257.191
-255.625
-253.506
-250.308
-245.008
-236.851
-225.13
-209.501
-190.358
-167.802
-142.122
-114.743
-87.378
-61.809
-38.699
-16.768
4.299
22.996
35.031
33.905
16.475
-16.773
-62.796
-116.208
-172.519
-227.981
-276.952
-313.15
-333.159
-336.483
-326.88
-311.652
-295.289
-279.845
-265.892
-251.813
-237.7
-224.93
-214.638
-208.504
-207.203
-210.06
-216.007
-223.501
-230.953
-237.452
-242.411
-245.196
-245.529
-243.503
-239.415
-233.978
-228.064
-222.136
-216.455
-211.263
-206.566
-202.293
-198.387
-194.6
-190.635
-186.385
-181.804
-176.882
-171.691
-166.248
-160.546
-154.632
-148.556
-142.341
-136.024
-129.626
-123.172
-116.726
-110.342
-104.061
-97.923
-91.948
-86.152
-80.555
-75.166
-69.991
-65.047
-60.351
-55.923
-51.785
-47.953
-44.437
-41.243
-38.369
-35.81
-33.561
-31.614
-29.96
-28.596
-27.513
-26.708
-26.178
-25.916
-25.91
-26.147
-26.611
-27.284
-28.148
-29.182
-30.364
-31.672
-33.085
-34.581
-36.139
-37.734
-39.344
-40.946
-42.515
-44.027
-45.459
-46.785
-47.984
-49.031
-49.905
-50.586
-51.052
-51.286
-51.271
-50.988
-50.425
-49.568
-48.403
-46.921
-45.112
-42.969
-40.485
-37.659
-34.488
-30.974
-27.119
-22.93
-18.413
-13.579
-8.437
-3.002
2.712
8.69
14.913
21.362
28.016
34.854
41.853
48.988
56.237
63.572
70.969
78.402
85.845
93.272
100.656
107.971
115.192
122.293
129.25
136.038
142.635
149.018
155.166
161.061
166.684
172.018
177.049
181.766
186.156
190.211
193.925
197.292
200.31
202.978
205.297
207.27
208.902
210.199
211.169
211.822
212.168
212.221
211.993
211.499
210.756
209.781
208.591
207.205
205.644
203.928
202.078
200.116
198.064
195.944
193.78
191.593
189.405
187.24
185.118
183.062
181.089
179.221
177.476
175.87
174.421
173.142
172.048
171.151
170.463
169.992
169.747
169.736
169.964
170.435
171.153
172.118
173.331
174.791
176.494
178.435
180.61
183.011
185.627
188.45
191.466
194.662
198.023
201.533
205.174
208.927
212.774
216.693
220.664
224.664
228.672
232.666
236.624
240.523
244.341
248.058
251.652
255.104
258.393
261.503
264.413
267.108
269.573
271.793
273.755
275.447
276.859
277.982
278.811
279.339
279.564
279.484
279.101
278.416
277.436
276.166
274.615
272.795
270.718
268.398
265.854
263.102
260.162
257.055
253.802
250.426
246.948
243.392
239.779
236.132
232.473
228.824
225.205
221.639
218.144
214.739
211.444
208.275
205.249
202.38
199.682
197.165
194.841
192.718
190.801
189.098
187.61
186.341
185.29
184.455
183.833
183.419
183.204
183.178
183.33
183.646
184.115
184.724
185.461
186.316
187.281
188.348
189.509
190.754
192.076
193.464
194.907
196.393
197.906
199.433
200.966
202.499
204.023
205.529
207.006
208.442
209.833
211.175
212.467
213.707
214.894
216.036
217.152
218.272
219.436
220.677
222.013
223.468
225.067
226.843
228.836
231.066
233.513
236.149
238.94
241.841
244.832
247.869
250.856
253.751
256.551
259.306
262.176
265.297
268.715
272.463
276.562
280.836
285.054
288.933
291.974
293.772
294.06
292.66
289.663
285.63
281.351
277.615
275.415
275.661
279.271
287.183
299.846
317.024
337.924
361.683
387.353
413.766
439.176
461.319
478.168
488.097
490.073
483.174
466.134
438.763
402.653
359.923
312.949
262.388
206.757
147.179
87.357
34.002
-3.642
-21.698
-20.749
-4.468
18.848
44.615
71.197
95.97
119.605
140.766
155.648
164.158
166.044
161.958
154.758
144.851
132.405
118.443
103.695
89.881
78.376
69.495
63.186
58.917
56.204
54.647
53.565
52.39
50.778
48.523
45.682
42.435
38.888
35.213
31.669
28.398
25.47
22.907
20.63
18.566
16.668
14.858
13.052
11.192
9.249
7.225
5.148
3.036
0.897
-1.258
-3.414
-5.549
-7.644
-9.692
-11.687
-13.626
-15.5
-17.295
-19.001
-20.606
-22.101
-23.478
-24.727
-25.84
-26.807
-27.622
-28.278
-28.771
-29.096
-29.248
-29.221
-29.01
-28.61
-28.018
-27.231
-26.248
-25.069
-23.697
-22.136
-20.392
-18.472
-16.384
-14.137
-11.742
-9.209
-6.549
-3.772
-0.892
2.079
5.127
8.238
11.398
14.592
17.804
21.02
24.224
27.401
30.537
33.618
36.63
39.558
42.391
45.116
47.721
50.195
52.528
54.71
56.734
58.591
60.275
61.782
63.107
64.248
65.202
65.969
66.548
66.94
67.146
67.169
67.013
66.68
66.176
65.506
64.676
63.692
62.562
61.291
59.888
58.36
56.714
54.958
53.098
51.143
49.1
46.975
44.776
42.508
40.179
37.794
35.36
32.881
30.363
27.81
25.228
22.621
19.992
17.345
14.684
12.012
9.332
6.646
3.957
1.266
-1.425
-4.113
-6.797
-9.476
-12.148
-14.811
-17.464
-20.104
-22.73
-25.338
-27.926
-30.491
-33.029
-35.537
-38.01
-40.444
-42.835
-45.176
-47.464
-49.691
-51.854
-53.946
-55.96
-57.891
-59.734
-61.48
-63.125
-64.663
-66.086
-67.39
-68.568
-69.614
-70.522
-71.289
-71.908
-72.376
-72.688
-72.842
-72.834
-72.664
-72.331
-71.834
-71.174
-70.353
-69.374
-68.24
-66.958
-65.532
-63.969
-62.279
-60.469
-58.551
-56.535
-54.433
-52.258
-50.022
-47.739
-45.424
-43.093
-40.761
-38.444
-36.158
-33.921
-31.75
-29.663
-27.675
-25.803
-24.064
-22.473
-21.047
-19.799
-18.743
-17.894
-17.263
-16.861
-16.7
-16.789
-17.134
-17.74
-18.613
-19.754
-21.164
-22.841
-24.782
-26.983
-29.438
-32.141
-35.083
-38.254
-41.643
-45.236
-49.02
-52.978
-57.094
-61.349
-65.725
-70.2
-74.758
-79.378
-84.042
-88.729
-93.42
-98.094
-102.732
-107.313
-111.818
-116.226
-120.519
-124.68
-128.693
-132.545
-136.224
-139.722
-143.03
-146.143
-149.057
-151.77
-154.277
-156.577
-158.67
-160.557
-162.239
-163.716
-164.99
-166.067
-166.954
-167.661
-168.199
-168.579
-168.814
-168.918
-168.911
-168.809
-168.626
-168.371
-168.058
-167.705
-167.34
-167.001
-166.72
-166.522
-166.429
-166.464
-166.642
-166.963
-167.409
-167.932
-168.483
-169.031
-169.563
-170.093
-170.632
-171.18
-171.724
-172.233
-172.685
-173.069
-173.377
-173.588
-173.703
-173.772
-173.885
-174.245
-175.091
-176.54
-178.6
-181.174
-184.046
-187.067
-190.217
-193.376
-196.326
-199.102
-201.934
-205.373
-210.285
-217.117
-225.828
-236.315
-248.478
-261.943
-276.081
-289.656
-300.837
-308.426
-311.906
-310.839
-304.762
-293.309
-276.405
-254.632
-229.398
-201.837
-172.463
-142.464
-114.109
-89.078
-68.611
-53.049
-40.817
-33.158
-34.114
-46.7
-73.165
-111.743
-156.872
-205.353
-256.158
-308.316
-360.829
-408.403
-442.724
-459.075
-455.606
-434.661
-403.387
-367.465
-332.188
-303.496
-283.854
-274.297
-274.315
-279.679
-286.564
-292.91
-297.656
-301.768
-306.367
-311.232
-315.361
-317.483
-317.041
-314.356
-310.358
-306.207
-302.449
-299.258
-296.817
-295.069
-293.915
-293.289
-292.915
-292.464
-291.808
-290.884
-289.659
-288.183
-286.467
-284.492
-282.29
-279.895
-277.316
-274.575
-271.694
-268.698
-265.642
-262.569
-259.503
-256.466
-253.466
-250.508
-247.597
-244.731
-241.903
-239.116
-236.384
-233.722
-231.151
-228.682
-226.323
-224.075
-221.937
-219.908
-217.987
-216.169
-214.452
-212.838
-211.33
-209.935
-208.661
-207.511
-206.486
-205.587
-204.811
-204.155
-203.616
-203.187
-202.862
-202.635
-202.499
-202.45
-202.483
-202.589
-202.763
-202.996
-203.28
-203.605
-203.961
-204.339
-204.727
-205.114
-205.49
-205.844
-206.165
-206.444
-206.671
-206.837
-206.932
-206.949
-206.878
-206.711
-206.439
-206.055
-205.552
-204.923
-204.163
-203.267
-202.232
-201.053
-199.731
-198.262
-196.646
-194.882
-192.97
-190.911
-188.706
-186.357
-183.868
-181.24
-178.478
-175.588
-172.573
-169.44
-166.196
-162.845
-159.395
-155.853
-152.226
-148.522
-144.748
-140.913
-137.024
-133.09
-129.119
-125.12
-121.102
-117.072
-113.039
-109.01
-104.993
-100.996
-97.025
-93.087
-89.188
-85.335
-81.532
-77.785
-74.098
-70.474
-66.918
-63.432
-60.018
-56.677
-53.41
-50.218
-47.1
-44.055
-41.081
-38.178
-35.341
-32.569
-29.856
-27.198
-24.591
-22.028
-19.505
-17.015
-14.55
-12.106
-9.673
-7.247
-4.818
-2.381
0.072
2.548
5.052
7.591
10.171
12.797
15.474
18.204
20.993
23.842
26.752
29.725
32.76
35.856
39.012
42.224
45.489
48.803
52.159
55.552
58.973
62.416
65.869
69.325
72.771
76.197
79.591
82.94
86.232
89.454
92.592
95.635
98.57
101.382
104.061
106.593
108.967
111.172
113.198
115.037
116.679
118.119
119.351
120.37
121.173
121.758
122.126
122.275
122.208
121.929
121.44
120.747
119.858
118.781
117.524
116.099
114.517
112.789
110.931
108.955
106.876
104.71
102.47
100.172
97.831
95.463
93.084
90.709
88.354
86.033
83.759
81.547
79.408
77.351
75.386
73.519
71.757
70.106
68.568
67.148
65.846
64.664
63.602
62.659
61.832
61.116
60.506
59.995
59.575
59.235
58.967
58.758
58.597
58.474
58.38
58.307
58.245
58.184
58.117
58.036
57.931
57.793
57.614
57.383
57.094
56.746
56.338
55.873
55.353
54.783
54.166
53.513
52.826
52.101
51.335
50.52
49.65
48.736
47.79
46.827
45.878
44.967
44.123
43.386
42.784
42.33
42.034
41.888
41.893
42.077
42.473
43.116
44.047
45.279
46.819
48.683
50.834
53.204
55.721
58.259
60.713
63.054
65.233
67.205
69.023
70.731
72.412
74.278
76.456
79.006
82.084
85.789
90.025
94.662
99.363
103.573
106.958
109.25
110.059
109.283
107.234
104.511
102.194
101.679
104.087
110.477
122.028
139.494
162.932
191.738
224.742
259.755
294.527
327.367
355.662
378.081
393.965
400.251
394.986
376.09
341.936
296.421
243.868
187.864
131.252
73.013
13.804
-42.19
-88.761
-118.947
-129.652
-122.95
-104.593
-80.854
-55.938
-31.657
-7.751
15.793
37.854
56.843
70.832
78.873
81.349
79.37
74.449
68.026
61.36
55.451
51.147
49.007
49.144
51.294
54.945
59.441
64.083
68.421
72.142
75.07
77.27
78.864
80.041
81.082
82.274
83.775
85.663
87.95
90.564
93.457
96.585
99.872
103.249
106.655
110.044
113.385
116.651
119.815
122.856
125.756
128.504
131.1
133.547
135.853
138.035
140.101
142.056
143.906
145.653
147.303
148.866
150.354
151.78
153.159
154.504
155.828
157.146
158.469
159.806
161.162
162.543
163.953
165.403
166.9
168.455
170.074
171.766
173.537
175.393
177.339
179.377
181.509
183.735
186.052
188.462
190.962
193.55
196.224
198.98
201.812
204.717
207.689
210.72
213.804
216.931
220.094
223.283
226.49
229.706
232.921
236.127
239.313
242.473
245.596
248.675
251.703
254.671
257.572
260.402
263.152
265.82
268.398
270.885
273.277
275.571
277.766
279.859
281.851
283.74
285.527
287.212
288.797
290.282
291.668
292.958
294.154
295.258
296.273
297.2
298.042
298.801
299.478
300.076
300.595
301.035
301.397
301.679
301.88
301.999
302.033
301.978
301.83
301.586
301.24
300.787
300.221
299.535
298.724
297.779
296.694
295.462
294.075
292.525
290.804
288.906
286.822
284.546
282.07
279.387
276.492
273.377
270.039
266.473
262.673
258.638
254.366
249.854
245.103
240.114
234.889
229.431
223.746
217.838
211.715
205.383
198.854
192.135
185.239
178.176
170.961
163.606
156.126
148.536
140.851
133.087
125.261
117.389
109.488
101.576
93.668
85.783
77.939
70.151
62.436
54.813
47.296
39.902
32.645
25.54
18.6
11.837
5.265
-1.108
-7.271
-13.216
-18.934
-24.419
-29.667
-34.673
-39.435
-43.951
-48.22
-52.243
-56.021
-59.557
-62.855
-65.918
-68.75
-71.357
-73.746
-75.923
-77.895
-79.672
-81.261
-82.673
-83.916
-85.001
-85.938
-86.738
-87.411
-87.967
-88.417
-88.771
-89.039
-89.232
-89.359
-89.43
-89.454
-89.44
-89.396
-89.328
-89.241
-89.143
-89.036
-88.926
-88.816
-88.708
-88.607
-88.515
-88.436
-88.372
-88.324
-88.294
-88.28
-88.284
-88.304
-88.338
-88.385
-88.442
-88.508
-88.581
-88.66
-88.741
-88.824
-88.905
-88.981
-89.051
-89.11
-89.152
-89.17
-89.162
-89.125
-89.056
-88.952
-88.806
-88.616
-88.38
-88.096
-87.76
-87.363
-86.898
-86.357
-85.736
-85.031
-84.241
-83.361
-82.386
-81.316
-80.161
-78.93
-77.638
-76.287
-74.869
-73.38
-71.825
-70.198
-68.493
-66.694
-64.773
-62.724
-60.556
-58.272
-55.879
-53.361
-50.683
-47.817
-44.729
-41.382
-37.78
-33.924
-29.814
-25.512
-21.092
-16.637
-12.279
-8.113
-4.13
-0.292
3.503
7.404
11.476
15.752
20.314
25.183
30.22
35.109
39.332
42.35
43.856
43.689
41.702
37.857
32.43
26.14
20.153
15.641
13.496
14.557
19.647
29.43
44.27
63.845
87.045
112.863
139.947
165.91
189.012
207.88
221.597
231.209
235.884
232.122
217.289
189.146
148.982
102.08
51.829
0.394
-50.609
-99.61
-141.197
-169.692
-182.752
-181.429
-171.425
-158.685
-146.264
-135.461
-125.563
-115.873
-106.819
-99.152
-93.931
-91.88
-93.096
-96.923
-101.992
-107.045
-111.391
-114.762
-117.172
-118.527
-118.503
-117.089
-114.74
-112.09
-109.602
-107.414
-105.437
-103.59
-101.947
-100.574
-99.388
-98.169
-96.726
-94.981
-92.943
-90.671
-88.189
-85.481
-82.557
-79.462
-76.252
-72.99
-69.735
-66.523
-63.399
-60.4
-57.548
-54.868
-52.375
-50.074
-47.97
-46.056
-44.32
-42.76
-41.378
-40.176
-39.153
-38.302
-37.606
-37.049
-36.615
-36.287
-36.046
-35.873
-35.745
-35.648
-35.565
-35.488
-35.403
-35.299
-35.158
-34.966
-34.709
-34.372
-33.942
-33.406
-32.752
-31.97
-31.055
-30.002
-28.809
-27.473
-25.993
-24.372
-22.612
-20.716
-18.689
-16.538
-14.27
-11.895
-9.423
-6.868
-4.242
-1.56
1.16
3.904
6.652
9.388
12.092
14.746
17.331
19.829
22.221
24.487
26.61
28.572
30.355
31.942
33.32
34.472
35.387
36.053
36.46
36.598
36.461
36.043
35.339
34.345
33.06
31.484
29.618
27.465
25.028
22.314
19.33
16.085
12.588
8.851
4.885
0.705
-3.675
-8.24
-12.975
-17.861
-22.882
-28.02
-33.257
-38.575
-43.956
-49.381
-54.833
-60.295
-65.748
-71.177
-76.565
-81.897
-87.157
-92.333
-97.409
-102.373
-107.215
-111.923
-116.488
-120.901
-125.154
-129.242
-133.16
-136.903
-140.469
-143.855
-147.063
-150.093
-152.946
-155.625
-158.136
-160.483
-162.671
-164.709
-166.602
-168.361
-169.992
-171.506
-172.911
-174.219
-175.438
-176.579
-177.654
-178.672
-179.644
-180.581
-181.494
-182.393
-183.288
-184.189
-185.105
-186.046
-187.02
-188.034
-189.096
-190.213
-191.39
-192.632
-193.943
-195.327
-196.785
-198.32
-199.93
-201.614
-203.372
-205.199
-207.093
-209.047
-211.058
-213.117
-215.22
-217.357
-219.52
-221.7
-223.886
-226.067
-228.232
-230.368
-232.463
-234.503
-236.476
-238.367
-240.163
-241.85
-243.415
-244.842
-246.119
-247.23
-248.162
-248.902
-249.436
-249.752
-249.838
-249.684
-249.28
-248.619
-247.693
-246.496
-245.024
-243.273
-241.239
-238.923
-236.322
-233.437
-230.272
-226.829
-223.116
-219.14
-214.91
-210.437
-205.733
-200.811
-195.686
-190.372
-184.887
-179.245
-173.465
-167.568
-161.574
-155.505
-149.386
-143.24
-137.094
-130.973
-124.903
-118.906
-113.007
-107.225
-101.58
-96.089
-90.769
-85.634
-80.699
-75.983
-71.501
-67.267
-63.294
-59.59
-56.163
-53.016
-50.153
-47.571
-45.259
-43.212
-41.426
-39.9
-38.644
-37.657
-36.925
-36.43
-36.154
-36.075
-36.165
-36.382
-36.663
-36.946
-37.182
-37.344
-37.421
-37.394
-37.235
-36.906
-36.362
-35.589
-34.591
-33.361
-31.878
-30.121
-28.08
-25.809
-23.429
-21.052
-18.76
-16.599
-14.565
-12.697
-11.068
-9.673
-8.438
-7.177
-5.604
-3.534
-0.904
2.423
6.575
11.556
17.347
23.694
30.075
36.183
41.805
46.658
50.749
54.431
58.212
62.96
69.729
79.255
92.415
110.244
133.183
161.198
193.753
229.701
267.952
307.097
344.602
377.8
404.741
424.995
439.649
448.775
450.306
440.324
415.19
374.516
320.615
257.563
190.184
122.957
61.405
12.28
-19.392
-31.726
-26.21
-7.33
20.751
54.966
92.33
128.857
158.953
178.449
185.426
181.609
172.501
162.18
152.982
145.597
138.171
129.965
121.717
114.301
109.049
106.375
105.548
105.59
105.505
104.719
103.026
100.37
96.809
92.448
87.478
82.211
76.998
72.066
67.525
63.399
59.644
56.243
53.191
50.466
48.024
45.823
43.833
42.033
40.415
38.954
37.63
36.425
35.323
34.318
33.415
32.617
31.929
31.36
30.904
30.554
30.299
30.132
30.045
30.034
30.096
30.228
30.428
30.694
31.022
31.403
31.827
32.281
32.75
33.215
33.666
34.088
34.47
34.803
35.077
35.28
35.401
35.432
35.36
35.174
34.862
34.411
33.813
33.056
32.133
31.037
29.761
28.3
26.649
24.805
22.764
20.525
18.086
15.447
12.607
9.568
6.331
2.9
-0.72
-4.525
-8.508
-12.662
-16.979
-21.449
-26.062
-30.807
-35.673
-40.646
-45.712
-50.856
-56.061
-61.311
-66.588
-71.872
-77.146
-82.389
-87.581
-92.704
-97.737
-102.66
-107.454
-112.1
-116.579
-120.872
-124.961
-128.828
-132.456
-135.83
-138.934
-141.754
-144.278
-146.492
-148.388
-149.956
-151.189
-152.082
-152.631
-152.833
-152.69
-152.204
-151.378
-150.219
-148.736
-146.94
-144.841
-142.456
-139.799
-136.89
-133.745
-130.387
-126.837
-123.118
-119.254
-115.269
-111.19
-107.042
-102.853
-98.648
-94.456
-90.303
-86.217
-82.224
-78.35
-74.621
-71.061
-67.693
-64.54
-61.622
-58.959
-56.566
-54.459
-52.652
-51.155
-49.976
-49.123
-48.599
-48.405
-48.541
-49.005
-49.79
-50.89
-52.296
-53.996
-55.976
-58.223
-60.719
-63.447
-66.386
-69.516
-72.813
-76.256
-79.818
-83.475
-87.201
-90.969
-94.752
-98.523
-102.254
-105.92
-109.494
-112.95
-116.264
-119.41
-122.366
-125.11
-127.621
-129.88
-131.868
-133.569
-134.969
-136.055
-136.814
-137.237
-137.317
-137.046
-136.42
-135.437
-134.094
-132.392
-130.333
-127.921
-125.161
-122.06
-118.627
-114.873
-110.809
-106.449
-101.805
-96.894
-91.731
-86.332
-80.714
-74.896
-68.895
-62.731
-56.422
-49.989
-43.452
-36.832
-30.149
-23.424
-16.677
-9.927
-3.193
3.506
10.153
16.73
23.221
29.61
35.881
42.019
48.012
53.846
59.51
64.995
70.295
75.402
80.312
85.022
89.527
93.824
97.913
101.791
105.459
108.919
112.174
115.231
118.096
120.782
123.3
125.663
127.883
129.971
131.937
133.792
135.546
137.209
138.789
140.287
141.707
143.047
144.308
145.487
146.583
147.591
148.507
149.335
150.082
150.765
151.396
151.986
152.547
153.092
153.649
154.26
154.976
155.854
156.942
158.283
159.902
161.817
164.022
166.489
169.142
171.852
174.547
177.232
179.994
183.006
186.372
190.075
194.118
198.569
203.36
208.198
212.507
215.414
216.238
214.683
210.565
203.731
194.195
182.338
169.18
156.357
145.376
137.367
133.379
134.385
141.314
154.83
174.675
199.662
228.598
259.771
290.613
319.259
343.734
362.616
376.544
383.953
381.624
367.49
338.958
297.462
247.583
191.226
131.054
69.775
10.753
-37.419
-67.027
-75.151
-62.942
-37.712
-8.22
20.717
46.789
70.332
93.186
114.981
133.899
148.075
155.913
157.306
153.479
145.976
136.154
125.239
114.553
105.224
97.953
93.052
90.337
89.289
89.474
90.396
91.354
91.832
91.55
90.353
88.309
85.614
82.409
78.894
75.346
71.921
68.688
65.685
62.862
60.172
57.6
55.093
52.59
50.058
47.465
44.809
42.118
39.408
36.688
33.97
31.262
28.578
25.942
23.363
20.846
18.388
15.988
13.648
11.37
9.157
7.009
4.928
2.912
0.962
-0.922
-2.744
-4.504
-6.209
-7.865
-9.478
-11.053
-12.592
-14.096
-15.568
-17.008
-18.417
-19.794
-21.139
-22.452
-23.733
-24.984
-26.204
-27.392
-28.545
-29.659
-30.73
-31.753
-32.722
-33.63
-34.469
-35.232
-35.912
-36.503
-36.997
-37.388
-37.67
-37.837
-37.882
-37.802
-37.592
-37.248
-36.768
-36.149
-35.393
-34.498
-33.467
-32.302
-31.008
-29.59
-28.053
-26.406
-24.655
-22.811
-20.883
-18.883
-16.823
-14.716
-12.576
-10.418
-8.257
-6.109
-3.99
-1.915
0.099
2.039
3.888
5.633
7.26
8.757
10.112
11.315
12.356
13.227
13.922
14.434
14.761
14.898
14.846
14.604
14.173
13.556
12.759
11.785
10.641
9.336
7.877
6.274
4.538
2.68
0.711
-1.356
-3.508
-5.733
-8.019
-10.353
-12.724
-15.119
-17.528
-19.942
-22.35
-24.746
-27.123
-29.473
-31.794
-34.082
-36.333
-38.549
-40.728
-42.872
-44.983
-47.065
-49.122
-51.158
-53.178
-55.189
-57.197
-59.208
-61.228
-63.264
-65.322
-67.41
-69.532
-71.694
-73.901
-76.157
-78.464
-80.823
-83.236
-85.701
-88.216
-90.778
-93.379
-96.015
-98.677
-101.354
-104.035
-106.708
-109.357
-111.967
-114.52
-116.997
-119.381
-121.651
-123.787
-125.77
-127.579
-129.195
-130.599
-131.771
-132.693
-133.347
-133.718
-133.789
-133.546
-132.976
-132.068
-130.812
-129.202
-127.234
-124.905
-122.214
-119.164
-115.758
-112.002
-107.905
-103.478
-98.731
-93.681
-88.346
-82.746
-76.903
-70.842
-64.589
-58.172
-51.617
-44.953
-38.208
-31.411
-24.59
-17.774
-10.99
-4.268
2.364
8.877
15.245
21.44
27.437
33.212
38.743
44.013
49.005
53.706
58.103
62.188
65.955
69.402
72.528
75.333
77.817
79.984
81.84
83.395
84.659
85.643
86.36
86.824
87.051
87.062
86.874
86.497
85.935
85.185
84.248
83.13
81.842
80.404
78.845
77.206
75.539
73.9
72.34
70.89
69.572
68.389
67.34
66.43
65.687
65.158
64.905
64.98
65.396
66.149
67.184
68.393
69.666
70.831
71.686
72.142
72.208
72.001
71.784
71.769
72.007
72.596
73.661
75.045
76.433
77.27
76.724
74.283
69.814
63.154
54.159
43.179
30.945
18.71
8.228
0.848
-2.414
-0.375
8.193
23.996
46.951
76.085
109.703
146.069
183.295
218.974
250.182
274.021
288.39
291.837
283.81
264.974
236.524
200.286
157.641
108.09
51.648
-9.457
-69.763
-119.69
-151.264
-161.8
-152.841
-131.642
-105.684
-78.777
-54.823
-34.503
-17.525
-5.758
1.658
4.81
3.285
-0.962
-7.603
-16
-24.549
-32.961
-40.33
-45.506
-48.286
-48.709
-47.188
-44.663
-42.009
-39.623
-37.748
-36.589
-36.114
-36.288
-37.079
-38.224
-39.423
-40.551
-41.525
-42.31
-42.975
-43.533
-43.965
-44.308
-44.59
-44.833
-45.074
-45.338
-45.644
-46.011
-46.447
-46.952
-47.529
-48.172
-48.871
-49.606
-50.351
-51.086
-51.804
-52.5
-53.174
-53.817
-54.415
-54.95
-55.406
-55.765
-56.01
-56.121
-56.078
-55.863
-55.463
-54.872
-54.083
-53.091
-51.887
-50.463
-48.811
-46.924
-44.798
-42.426
-39.804
-36.928
-33.798
-30.417
-26.788
-22.915
-18.804
-14.462
-9.895
-5.113
-0.125
5.061
10.433
15.98
21.689
27.546
33.538
39.648
45.861
52.16
58.526
64.944
71.394
77.86
84.324
90.768
97.174
103.523
109.8
115.984
122.06
128.01
133.816
139.461
144.93
150.209
155.281
160.135
164.757
169.135
173.257
177.114
180.696
183.995
187.003
189.713
192.121
194.222
196.015
197.498
198.67
199.532
200.088
200.339
200.292
199.951
199.323
198.416
197.239
195.802
194.115
192.19
190.04
187.678
185.119
182.377
179.467
176.405
173.208
169.891
166.472
162.967
159.393
155.767
152.104
148.421
144.733
141.056
137.404
133.789
130.226
126.726
123.3
119.957
116.707
113.557
110.514
107.583
104.769
102.076
99.505
97.058
94.736
92.538
90.461
88.503
86.66
84.928
83.301
81.772
80.334
78.982
77.705
76.498
75.35
74.254
73.199
72.179
71.183
70.202
69.229
68.255
67.272
66.273
65.251
64.202
63.118
61.997
60.833
59.622
58.363
57.051
55.685
54.262
52.782
51.244
49.649
47.998
46.291
44.53
42.719
40.858
38.952
37.002
35.011
32.981
30.914
28.813
26.681
24.52
22.332
20.121
17.888
15.636
13.366
11.078
8.772
6.447
4.102
1.735
-0.655
-3.069
-5.511
-7.982
-10.483
-13.016
-15.583
-18.189
-20.835
-23.526
-26.266
-29.06
-31.914
-34.833
-37.821
-40.882
-44.016
-47.226
-50.51
-53.868
-57.294
-60.786
-64.342
-67.962
-71.645
-75.394
-79.204
-83.074
-86.998
-90.968
-94.978
-99.015
-103.064
-107.111
-111.146
-115.166
-119.181
-123.192
-127.189
-131.162
-135.094
-138.958
-142.734
-146.38
-149.841
-153.076
-156.053
-158.76
-161.209
-163.407
-165.351
-167.036
-168.44
-169.55
-170.374
-170.918
-171.186
-171.213
-171.047
-170.774
-170.536
-170.439
-170.568
-170.983
-171.712
-172.774
-174.162
-175.866
-177.896
-180.21
-182.721
-185.311
-187.757
-189.811
-191.366
-192.254
-192.242
-191.324
-189.496
-186.9
-184.106
-181.617
-179.638
-178.307
-177.493
-176.702
-175.677
-173.94
-170.359
-163.848
-153.474
-138.551
-119.164
-96.342
-71.273
-45.145
-19.854
4.049
27.323
48.911
67.083
77.294
71.647
46.589
2.927
-54.588
-117.728
-182.84
-249.608
-317.384
-384.116
-442.541
-484.564
-506.276
-507.693
-493.382
-469.308
-439.566
-408.208
-379.38
-355.996
-340.163
-331.651
-327.311
-324.26
-320.926
-316.956
-313.812
-312.449
-312.28
-312.215
-310.654
-306.576
-300.016
-291.464
-281.633
-271.204
-260.797
-250.842
-241.674
-233.549
-226.487
-220.393
-215.066
-210.169
-205.358
-200.444
-195.329
-189.979
-184.433
-178.7
-172.8
-166.815
-160.829
-154.897
-149.051
-143.284
-137.591
-131.997
-126.549
-121.301
-116.296
-111.55
-107.067
-102.851
-98.903
-95.222
-91.796
-88.595
-85.596
-82.781
-80.137
-77.656
-75.319
-73.105
-70.988
-68.944
-66.95
-64.988
-63.042
-61.096
-59.138
-57.158
-55.15
-53.11
-51.034
-48.918
-46.758
-44.552
-42.297
-39.995
-37.646
-35.255
-32.823
-30.358
-27.866
-25.355
-22.832
-20.306
-17.784
-15.277
-12.793
-10.341
-7.93
-5.57
-3.268
-1.035
1.122
3.195
5.178
7.064
8.85
10.529
12.1
13.56
14.909
16.147
17.276
18.298
19.218
20.04
20.771
21.417
21.987
22.49
22.934
23.33
23.688
24.021
24.34
24.655
24.98
25.326
25.705
26.127
26.605
27.148
27.768
28.474
29.276
30.181
31.199
32.337
33.601
34.996
36.527
38.198
40.012
41.969
44.071
46.316
48.703
51.23
53.892
56.685
59.603
62.64
65.788
69.038
72.381
75.807
79.306
82.866
86.476
90.123
93.795
97.478
101.16
104.827
108.465
112.059
115.596
119.06
122.439
125.716
128.879
131.913
134.805
137.541
140.108
142.495
144.688
146.677
148.45
149.998
151.311
152.381
153.2
153.762
154.061
154.094
153.856
153.347
152.564
151.507
150.178
148.579
146.713
144.583
142.196
139.558
136.676
133.561
130.221
126.667
122.911
118.964
114.84
110.55
106.11
101.532
96.83
92.021
87.118
82.138
77.095
72.006
66.885
61.749
56.61
51.483
46.381
41.316
36.299
31.342
26.453
21.644
16.922
12.297
7.775
3.362
-0.937
-5.12
-9.183
-13.127
-16.952
-20.658
-24.246
-27.719
-31.077
-34.322
-37.456
-40.482
-43.403
-46.222
-48.944
-51.575
-54.122
-56.59
-58.986
-61.318
-63.59
-65.808
-67.973
-70.089
-72.157
-74.177
-76.15
-78.074
-79.951
-81.781
-83.563
-85.297
-86.982
-88.615
-90.191
-91.708
-93.158
-94.536
-95.836
-97.053
-98.187
-99.241
-100.22
-101.139
-102.007
-102.831
-103.612
-104.346
-105.016
-105.596
-106.056
-106.361
-106.486
-106.419
-106.158
-105.714
-105.092
-104.298
-103.33
-102.172
-100.808
-99.219
-97.388
-95.317
-93.057
-90.707
-88.401
-86.303
-84.528
-83.166
-82.297
-81.901
-81.901
-82.17
-82.489
-82.659
-82.579
-82.188
-81.459
-80.594
-79.854
-79.455
-79.788
-81.153
-83.697
-87.53
-92.571
-98.249
-103.752
-108.331
-110.932
-110.481
-106.039
-96.7
-81.826
-61.479
-36.366
-7.165
24.534
56.076
85.532
111.239
132.105
148.794
159.799
160.971
149.37
122.715
82.356
34.012
-18.909
-74.903
-132.162
-189.189
-240.326
-277.028
-294.844
-292.401
-272.156
-241.142
-204.738
-167.884
-136.3
-112.287
-96.704
-88.781
-84.492
-80.6
-75.524
-68.572
-60.9
-53.851
-47.684
-42.037
-35.936
-28.598
-20.042
-10.949
-2.368
5.114
11.317
16.171
19.719
21.835
22.435
21.766
20.218
18.149
15.837
13.402
10.877
8.364
5.947
3.656
1.523
-0.455
-2.25
-3.763
-4.921
-5.684
-6.032
-6.012
-5.683
-5.106
-4.383
-3.594
-2.785
-1.997
-1.235
-0.489
0.231
0.922
1.586
2.193
2.733
3.201
3.589
3.913
4.205
4.502
4.861
5.338
5.966
6.77
7.765
8.953
10.34
11.93
13.715
15.695
17.874
20.252
22.838
25.634
28.632
31.823
35.193
38.724
42.403
46.215
50.147
54.186
58.321
62.541
66.838
71.204
75.626
80.09
84.579
89.076
93.565
98.029
102.45
106.812
111.097
115.29
119.377
123.346
127.181
130.871
134.403
137.766
140.95
143.946
146.744
149.339
151.724
153.895
155.851
157.591
159.115
160.426
161.527
162.423
163.122
163.629
163.954
164.105
164.093
163.93
163.628
163.201
162.663
162.027
161.309
160.524
159.685
158.807
157.904
156.988
156.072
155.168
154.286
153.438
152.631
151.873
151.173
150.536
149.965
149.464
149.034
148.674
148.383
148.158
147.993
147.882
147.819
147.793
147.796
147.816
147.84
147.856
147.851
147.809
147.716
147.558
147.319
146.986
146.543
145.977
145.276
144.427
143.418
142.241
140.885
139.342
137.607
135.674
133.539
131.201
128.659
125.915
122.973
119.837
116.517
113.019
109.356
105.539
101.583
97.504
93.318
89.044
84.703
80.316
75.906
71.495
67.108
62.768
58.499
54.327
50.274
46.364
42.619
39.062
35.714
32.596
29.727
27.126
24.81
22.795
21.095
19.722
18.687
17.998
17.66
17.678
18.053
18.786
19.875
21.316
23.103
25.228
27.681
30.45
33.519
36.872
40.489
44.349
48.431
52.712
57.166
61.77
66.499
71.327
76.229
81.179
86.149
91.111
96.039
100.903
105.675
110.327
114.832
119.162
123.296
127.211
130.889
134.31
137.46
140.323
142.888
145.144
147.081
148.689
149.962
150.895
151.487
151.743
151.665
151.262
150.542
149.516
148.198
146.599
144.725
142.583
140.174
137.501
134.58
131.426
128.059
124.514
120.834
117.065
113.264
109.475
105.729
102.055
98.468
94.988
91.635
88.433
85.42
82.637
80.128
77.932
76.071
74.514
73.193
72.012
70.854
69.634
68.268
66.662
64.814
62.792
60.736
58.878
57.372
56.28
55.714
55.756
56.286
57.111
57.865
57.992
57.21
55.349
52.119
47.503
41.869
35.84
30.507
27.178
26.771
30.273
38.882
53.273
73.628
99.472
129.437
162.054
196.006
229.309
259.491
284.287
301.492
309.671
308.243
296.232
273.357
241.19
201.843
157.799
110.361
58.425
2.381
-54.657
-106.157
-143.212
-161.175
-159.975
-144.228
-122.592
-100.714
-81.758
-67.074
-54.511
-42.912
-32.725
-24.401
-19.162
-17.671
-18.813
-20.793
-22.497
-23.456
-23.563
-23.039
-21.849
-19.637
-16.691
-13.834
-11.503
-9.928
-9.151
-8.879
-9.036
-9.774
-10.958
-12.293
-13.582
-14.625
-15.362
-15.903
-16.261
-16.394
-16.322
-16.063
-15.664
-15.209
-14.742
-14.284
-13.876
-13.556
-13.379
-13.397
-13.637
-14.118
-14.847
-15.824
-17.049
-18.522
-20.23
-22.17
-24.336
-26.717
-29.308
-32.099
-35.075
-38.222
-41.519
-44.945
-48.482
-52.114
-55.825
-59.602
-63.43
-67.297
-71.19
-75.097
-78.999
-82.88
-86.723
-90.508
-94.218
-97.836
-101.344
-104.726
-107.967
-111.053
-113.972
-116.71
-119.256
-121.598
-123.725
-125.627
-127.295
-128.723
-129.902
-130.829
-131.5
-131.911
-132.064
-131.959
-131.599
-130.986
-130.125
-129.023
-127.688
-126.127
-124.352
-122.372
-120.201
-117.851
-115.339
-112.678
-109.886
-106.98
-103.978
-100.899
-97.76
-94.582
-91.384
-88.184
-85.003
-81.86
-78.774
-75.764
-72.849
-70.047
-67.374
-64.848
-62.483
-60.293
-58.291
-56.489
-54.895
-53.519
-52.365
-51.44
-50.745
-50.281
-50.048
-50.043
-50.262
-50.697
-51.34
-52.181
-53.207
-54.405
-55.759
-57.251
-58.862
-60.571
-62.358
-64.198
-66.068
-67.943
-69.796
-71.603
-73.336
-74.968
-76.473
-77.824
-78.995
-79.96
-80.697
-81.181
-81.391
-81.308
-80.912
-80.189
-79.123
-77.703
-75.918
-73.762
-71.228
-68.314
-65.021
-61.351
-57.309
-52.903
-48.144
-43.044
-37.619
-31.887
-25.868
-19.585
-13.061
-6.324
0.599
7.678
14.882
22.18
29.539
36.924
44.303
51.643
58.909
66.068
73.089
79.94
86.59
93.011
99.176
105.057
110.632
115.877
120.772
125.3
129.445
133.193
136.533
139.458
141.959
144.035
145.684
146.908
147.71
148.097
148.079
147.666
146.871
145.71
144.2
142.358
140.205
137.759
135.043
132.078
128.886
125.49
121.911
118.174
114.3
110.313
106.235
102.088
97.892
93.668
89.435
85.21
81.011
76.853
72.751
68.719
64.77
60.917
57.169
53.536
50.022
46.633
43.372
40.242
37.244
34.38
31.65
29.057
26.604
24.297
22.139
20.131
18.271
16.558
14.99
13.564
12.273
11.11
10.067
9.134
8.3
7.555
6.883
6.268
5.694
5.145
4.611
4.088
3.574
3.072
2.586
2.128
1.711
1.356
1.085
0.922
0.899
1.061
1.44
2.054
2.905
3.97
5.21
6.593
8.039
9.422
10.692
11.863
13.016
14.328
15.888
17.662
19.681
22.036
24.607
27.101
28.947
29.305
27.694
24.036
18.247
10.262
0.28
-11.21
-23.046
-33.475
-41.32
-45.926
-46.683
-43.015
-34.335
-20.361
-1.857
19.671
43.185
67.797
92.47
115.405
133.629
144.572
147.047
141.732
130.433
114.244
92.286
61.382
17.258
-43.601
-120.535
-206.701
-290.97
-360.193
-404.658
-422.622
-417.861
-397.692
-369.693
-337.851
-305.007
-274.22
-247.816
-227.98
-214.991
-206.218
-199.144
-192.311
-185.473
-180.199
-177.187
-175.731
-174.829
-172.897
-169.072
-163.508
-156.613
-149.09
-141.768
-135.364
-130.381
-127.171
-125.855
-126.323
-128.391
-131.777
-136.095
-140.897
-145.822
-150.627
-155.152
-159.328
-163.078
-166.28
-168.851
-170.753
-171.954
-172.443
-172.222
-171.286
-169.663
-167.433
-164.674
-161.495
-158.017
-154.314
-150.445
-146.463
-142.401
-138.317
-134.265
-130.273
-126.354
-122.519
-118.769
-115.109
-111.541
-108.043
-104.584
-101.128
-97.627
-94.06
-90.418
-86.695
-82.893
-79.014
-75.062
-71.049
-67.002
-62.937
-58.87
-54.814
-50.779
-46.785
-42.854
-39.008
-35.27
-31.658
-28.188
-24.875
-21.731
-18.767
-15.99
-13.405
-11.014
-8.821
-6.829
-5.045
-3.471
-2.112
-0.969
-0.044
0.662
1.15
1.421
1.48
1.332
0.984
0.441
-0.288
-1.194
-2.268
-3.5
-4.877
-6.389
-8.024
-9.767
-11.606
-13.525
-15.512
-17.552
-19.631
-21.734
-23.848
-25.959
-28.053
-30.117
-32.139
-34.105
-36.003
-37.82
-39.545
-41.167
-42.675
-44.059
-45.309
-46.418
-47.377
-48.182
-48.827
-49.307
-49.621
-49.766
-49.741
-49.547
-49.187
-48.662
-47.976
-47.135
-46.145
-45.013
-43.746
-42.354
-40.846
-39.233
-37.526
-35.738
-33.88
-31.964
-30.006
-28.017
-26.013
-24.006
-22.013
-20.046
-18.121
-16.252
-14.453
-12.737
-11.118
-9.608
-8.219
-6.961
-5.845
-4.879
-4.071
-3.426
-2.951
-2.648
-2.521
-2.57
-2.794
-3.191
-3.758
-4.49
-5.381
-6.423
-7.607
-8.924
-10.361
-11.907
-13.549
-15.271
-17.059
-18.896
-20.766
-22.649
-24.527
-26.382
-28.195
-29.945
-31.614
-33.183
-34.634
-35.947
-37.106
-38.094
-38.896
-39.496
-39.88
-40.038
-39.957
-39.63
-39.047
-38.205
-37.097
-35.721
-34.075
-32.16
-29.977
-27.528
-24.817
-21.851
-18.636
-15.181
-11.499
-7.6
-3.5
0.785
5.238
9.841
14.574
19.418
24.354
29.359
34.413
39.493
44.578
49.646
54.673
59.639
64.521
69.297
73.949
78.459
82.811
86.988
90.975
94.759
98.325
101.66
104.751
107.586
110.156
112.452
114.471
116.21
117.668
118.851
119.762
120.408
120.795
120.929
120.816
120.461
119.869
119.051
118.011
116.752
115.279
113.591
111.692
109.586
107.276
104.762
102.052
99.155
96.086
92.871
89.532
86.088
82.565
78.985
75.388
71.829
68.372
65.084
62.027
59.242
56.763
54.61
52.768
51.211
49.865
48.602
47.384
46.26
45.334
44.802
44.785
45.239
46.189
47.738
49.708
51.725
53.187
53.19
51.148
46.947
40.41
31.373
20.145
7.348
-5.842
-17.624
-26.63
-32.009
-32.73
-27.796
-16.719
0.618
23.449
50.116
79.291
109.749
139.576
166.507
188.454
203.508
210.573
209.281
198.852
178.607
149.611
114.272
74.962
34.353
-6.768
-49.626
-92.744
-133.45
-167.697
-188.023
-190.086
-172.961
-138.229
-94.128
-49.446
-10.14
19.258
40.101
56.041
68.583
79.585
88.607
93.461
94.141
90.88
84.521
77.426
70.996
65.703
61.908
59.315
57.384
55.959
54.723
53.064
50.662
47.352
43
37.726
31.731
25.121
18.131
11.109
4.281
-2.159
-8.083
-13.499
-18.413
-22.854
-26.92
-30.739
-34.461
-38.204
-42.021
-45.927
-49.923
-54.001
-58.171
-62.436
-66.791
-71.255
-75.85
-80.591
-85.504
-90.586
-95.815
-101.156
-106.553
-111.952
-117.319
-122.628
-127.861
-133.011
-138.069
-143.03
-147.904
-152.689
-157.378
-161.962
-166.425
-170.755
-174.947
-178.996
-182.899
-186.657
-190.268
-193.728
-197.035
-200.184
-203.166
-205.973
-208.593
-211.013
-213.225
-215.22
-216.992
-218.535
-219.845
-220.918
-221.753
-222.349
-222.706
-222.821
-222.697
-222.332
-221.728
-220.89
-219.819
-218.52
-217
-215.265
-213.324
-211.186
-208.862
-206.362
-203.698
-200.884
-197.931
-194.853
-191.664
-188.379
-185.012
-181.578
-178.093
-174.574
-171.035
-167.492
-163.961
-160.455
-156.988
-153.572
-150.219
-146.94
-143.743
-140.638
-137.632
-134.733
-131.945
-129.273
-126.72
-124.287
-121.975
-119.783
-117.707
-115.743
-113.886
-112.13
-110.467
-108.887
-107.38
-105.936
-104.542
-103.185
-101.851
-100.526
-99.195
-97.84
-96.447
-94.999
-93.48
-91.872
-90.16
-88.329
-86.362
-84.246
-81.966
-79.509
-76.863
-74.017
-70.961
-67.685
-64.182
-60.447
-56.473
-52.257
-47.797
-43.094
-38.147
-32.959
-27.533
-21.876
-15.993
-9.892
-3.582
2.926
9.621
16.49
23.521
30.697
38.005
45.427
52.947
60.547
68.208
75.912
83.64
91.373
99.091
106.775
114.406
121.967
129.437
136.8
144.038
151.133
158.071
164.835
171.411
177.784
183.942
189.873
195.566
201.011
206.2
211.123
215.774
220.146
224.233
228.03
231.533
234.737
237.64
240.241
242.539
244.535
246.229
247.625
248.726
249.537
250.061
250.305
250.273
249.973
249.411
248.594
247.532
246.233
244.707
242.964
241.016
238.873
236.545
234.045
231.382
228.566
225.609
222.521
219.313
215.999
212.592
209.104
205.55
201.945
198.302
194.633
190.953
187.272
183.601
179.952
176.332
172.752
169.221
165.751
162.351
159.032
155.801
152.668
149.645
146.74
143.962
141.318
138.814
136.451
134.237
132.174
130.262
128.505
126.9
125.447
124.146
123
122.006
121.156
120.435
119.813
119.267
118.779
118.326
117.896
117.483
117.093
116.754
116.504
116.366
116.36
116.492
116.738
117.082
117.509
118.01
118.62
119.385
120.334
121.499
122.891
124.474
126.183
127.91
129.46
130.625
131.291
131.431
131.168
130.75
130.384
130.169
130.209
130.642
131.354
132.003
131.986
130.415
126.676
120.635
112.218
101.349
88.459
74.349
60.287
48.157
39.357
34.675
35.12
41.707
54.88
74.677
100.234
129.748
161.881
195.478
228.549
258.817
284.107
302.26
312.136
313.314
304.736
286.231
259.408
226.171
188.967
148.6
102.988
52.177
-1.485
-52.112
-89.501
-107.71
-104.324
-80.591
-45.142
-5.351
31.902
59.278
76.199
83.668
83.771
81.593
78.819
75.745
72.587
67.651
60.865
53.192
45.383
39.055
35.031
33.078
32.817
33.406
34.007
34.361
34.369
33.892
32.914
31.421
29.411
27.101
24.787
22.618
20.671
18.959
17.434
16.096
14.974
14.055
13.288
12.621
11.993
11.362
10.726
10.083
9.429
8.761
8.072
7.361
6.64
5.926
5.227
4.537
3.845
3.132
2.39
1.615
0.809
-0.032
-0.909
-1.826
-2.784
-3.78
-4.812
-5.881
-6.993
-8.155
-9.373
-10.646
-11.974
-13.354
-14.783
-16.257
-17.771
-19.315
-20.882
-22.463
-24.051
-25.638
-27.216
-28.774
-30.3
-31.785
-33.213
-34.573
-35.849
-37.025
-38.087
-39.019
-39.805
-40.432
-40.884
-41.149
-41.214
-41.068
-40.699
-40.099
-39.256
-38.165
-36.817
-35.209
-33.336
-31.197
-28.792
-26.122
-23.192
-20.007
-16.575
-12.903
-9.003
-4.886
-0.565
3.944
8.624
13.458
18.425
23.504
28.674
33.91
39.188
44.485
49.774
55.03
60.228
65.343
70.35
75.224
79.94
84.476
88.809
92.917
96.778
100.375
103.689
106.703
109.403
111.776
113.81
115.494
116.823
117.789
118.388
118.619
118.48
117.974
117.103
115.875
114.295
112.373
110.12
107.548
104.67
101.502
98.06
94.36
90.42
86.26
81.897
77.353
72.647
67.799
62.831
57.763
52.616
47.41
42.165
36.901
31.637
26.392
21.184
16.029
10.945
5.946
1.048
-3.737
-8.396
-12.918
-17.293
-21.512
-25.568
-29.454
-33.165
-36.697
-40.046
-43.211
-46.19
-48.983
-51.591
-54.014
-56.256
-58.318
-60.206
-61.924
-63.476
-64.868
-66.108
-67.201
-68.156
-68.981
-69.683
-70.271
-70.755
-71.145
-71.449
-71.677
-71.839
-71.945
-72.004
-72.025
-72.017
-71.99
-71.952
-71.911
-71.876
-71.854
-71.854
-71.882
-71.948
-72.056
-72.215
-72.43
-72.709
-73.055
-73.476
-73.974
-74.556
-75.225
-75.984
-76.835
-77.78
-78.82
-79.956
-81.185
-82.506
-83.917
-85.414
-86.995
-88.654
-90.389
-92.195
-94.067
-96.001
-97.992
-100.034
-102.121
-104.248
-106.406
-108.59
-110.791
-113.001
-115.214
-117.421
-119.614
-121.786
-123.928
-126.032
-128.091
-130.094
-132.034
-133.902
-135.689
-137.39
-138.998
-140.509
-141.92
-143.226
-144.425
-145.515
-146.49
-147.347
-148.078
-148.677
-149.137
-149.455
-149.627
-149.654
-149.534
-149.273
-148.874
-148.347
-147.699
-146.941
-146.086
-145.148
-144.142
-143.086
-141.996
-140.892
-139.786
-138.689
-137.608
-136.55
-135.515
-134.5
-133.495
-132.484
-131.449
-130.366
-129.209
-127.939
-126.529
-124.969
-123.262
-121.439
-119.546
-117.629
-115.768
-114.082
-112.617
-111.355
-110.232
-109.106
-107.881
-106.573
-105.124
-103.409
-101.555
-99.871
-98.867
-99.303
-101.687
-106.172
-113.014
-122.504
-134.458
-148.311
-162.938
-176.617
-187.985
-196.074
-199.71
-197.681
-189.268
-174.302
-153.513
-128.483
-100.744
-71.934
-44.282
-20.36
-2.727
6.417
5.571
-6.341
-29.518
-62.844
-104.592
-152.247
-204.551
-262.121
-323.519
-385.406
-441.489
-482.727
-504.473
-506.119
-490.217
-463.368
-430.727
-396.883
-367.478
-345.646
-332.864
-328.045
-326.319
-323.453
-317.269
-307.647
-296.935
-286.891
-277.882
-269.639
-261.221
-252.302
-243.27
-234.517
-226.448
-219.252
-212.828
-207.048
-201.777
-196.836
-192.047
-187.25
-182.322
-177.176
-171.776
-166.124
-160.217
-154.066
-147.694
-141.128
-134.403
-127.57
-120.674
-113.758
-106.879
-100.089
-93.451
-87.029
-80.866
-74.99
-69.415
-64.149
-59.194
-54.557
-50.233
-46.209
-42.479
-39.037
-35.876
-32.998
-30.396
-28.057
-25.97
-24.124
-22.508
-21.12
-19.955
-19.011
-18.284
-17.776
-17.485
-17.417
-17.57
-17.942
-18.531
-19.333
-20.344
-21.561
-22.982
-24.602
-26.418
-28.428
-30.629
-33.02
-35.595
-38.351
-41.283
-44.385
-47.649
-51.069
-54.636
-58.341
-62.173
-66.122
-70.178
-74.327
-78.558
-82.856
-87.207
-91.595
-96.006
-100.421
-104.826
-109.202
-113.531
-117.798
-121.985
-126.075
-130.05
-133.894
-137.59
-141.123
-144.477
-147.638
-150.59
-153.321
-155.818
-158.07
-160.068
-161.803
-163.268
-164.457
-165.367
-165.995
-166.34
-166.403
-166.186
-165.694
-164.931
-163.906
-162.626
-161.101
-159.342
-157.363
-155.175
-152.793
-150.233
-147.509
-144.638
-141.635
-138.518
-135.302
-132.003
-128.638
-125.221
-121.767
-118.289
-114.802
-111.317
-107.845
-104.396
-100.977
-97.597
-94.261
-90.973
-87.736
-84.551
-81.419
-78.339
-75.306
-72.318
-69.369
-66.453
-63.562
-60.687
-57.821
-54.952
-52.07
-49.166
-46.228
-43.244
-40.206
-37.101
-33.921
-30.656
-27.297
-23.837
-20.269
-16.587
-12.787
-8.866
-4.821
-0.652
3.641
8.055
12.586
17.232
21.984
26.837
31.782
36.809
41.91
47.072
52.284
57.533
62.807
68.093
73.376
78.645
83.885
89.083
94.227
99.304
104.304
109.215
114.028
118.735
123.327
127.798
132.144
136.361
140.446
144.399
148.221
151.914
155.482
158.93
162.265
165.494
168.626
171.671
174.639
177.541
180.389
183.195
185.971
188.729
191.483
194.244
197.025
199.838
202.693
205.601
208.572
211.614
214.736
217.945
221.246
224.645
228.146
231.753
235.467
239.289
243.218
247.25
251.383
255.611
259.925
264.317
268.777
273.296
277.86
282.459
287.08
291.711
296.337
300.947
305.526
310.061
314.538
318.945
323.269
327.497
331.618
335.624
339.505
343.254
346.864
350.329
353.642
356.798
359.791
362.617
365.273
367.759
370.075
372.225
374.216
376.056
377.755
379.325
380.774
382.111
383.343
384.479
385.524
386.485
387.365
388.165
388.887
389.53
390.091
390.569
390.959
391.257
391.463
391.581
391.62
391.591
391.501
391.366
391.203
391.032
390.884
390.795
390.802
390.958
391.308
391.878
392.686
393.726
394.949
396.315
397.742
399.101
400.346
401.487
402.585
403.796
405.228
406.867
408.771
411.04
413.504
415.832
417.463
417.565
415.564
411.228
404.262
394.384
381.792
367.067
351.337
336.347
323.578
314.122
309.174
310.075
317.683
332.267
353.472
379.394
407.439
435.58
461.286
483.261
502.319
517.366
526.898
527.949
513.996
482.334
432.668
366.353
290.842
213.3
141.166
84.185
47.497
32.305
37.252
56.819
85.253
118.688
152.643
182.02
202.982
213.13
213.093
207.264
199.938
193.618
188.836
183.81
177.326
169.501
161.209
154.271
149.661
147.216
146.425
146.288
145.927
145.043
143.484
141.08
137.834
133.792
129.007
123.736
118.294
112.831
107.441
102.17
96.975
91.849
86.816
81.858
76.938
72.041
67.133
62.198
57.243
52.25
47.213
42.137
37.023
31.884
26.745
21.627
16.56
11.576
6.693
1.928
-2.707
-7.198
-11.525
-15.667
-19.607
-23.322
-26.794
-30.004
-32.934
-35.569
-37.904
-39.934
-41.657
-43.078
-44.195
-45.012
-45.53
-45.753
-45.687
-45.338
-44.715
-43.826
-42.685
-41.307
-39.709
-37.91
-35.928
-33.784
-31.498
-29.09
-26.581
-23.991
-21.341
-18.653
-15.945
-13.24
-10.557
-7.916
-5.337
-2.838
-0.437
1.848
4.004
6.016
7.872
9.56
11.07
12.395
13.526
14.458
15.186
15.708
16.021
16.125
16.022
15.715
15.207
14.504
13.612
12.539
11.291
9.877
8.307
6.588
4.732
2.746
0.641
-1.573
-3.887
-6.291
-8.775
-11.331
-13.95
-16.624
-19.345
-22.108
-24.906
-27.733
-30.587
-33.462
-36.357
-39.271
-42.202
-45.151
-48.12
-51.11
-54.125
-57.17
-60.248
-63.366
-66.529
-69.744
-73.019
-76.36
-79.775
-83.271
-86.856
-90.538
-94.323
-98.219
-102.232
-106.369
-110.636
-115.037
-119.577
-124.261
-129.092
-134.071
-139.2
-144.482
-149.914
-155.495
-161.225
-167.098
-173.112
-179.26
-185.535
-191.931
-198.438
-205.046
-211.746
-218.525
-225.371
-232.271
-239.211
-246.178
-253.155
-260.129
-267.084
-274.003
-280.873
-287.676
-294.399
-301.025
-307.539
-313.927
-320.175
-326.269
-332.196
-337.942
-343.496
-348.846
-353.982
-358.892
-363.568
-368
-372.182
-376.105
-379.763
-383.151
-386.263
-389.097
-391.648
-393.913
-395.891
-397.58
-398.98
-400.09
-400.91
-401.441
-401.684
-401.641
-401.312
-400.7
-399.805
-398.631
-397.179
-395.45
-393.445
-391.168
-388.618
-385.797
-382.707
-379.35
-375.725
-371.836
-367.683
-363.269
-358.594
-353.662
-348.474
-343.033
-337.342
-331.405
-325.225
-318.808
-312.158
-305.281
-298.183
-290.871
-283.353
-275.636
-267.729
-259.641
-251.383
-242.964
-234.397
-225.693
-216.867
-207.934
-198.908
-189.807
-180.649
-171.451
-162.232
-153.012
-143.811
-134.649
-125.546
-116.522
-107.599
-98.795
-90.131
-81.627
-73.301
-65.173
-57.259
-49.578
-42.144
-34.971
-28.072
-21.459
-15.143
-9.132
-3.436
1.939
6.987
11.702
16.081
20.124
23.833
27.214
30.277
33.034
35.496
37.678
39.595
41.264
42.701
43.916
44.922
45.729
46.352
46.81
47.122
47.303
47.369
47.332
47.208
47.012
46.76
46.466
46.14
45.802
45.472
45.187
44.99
44.923
45.016
45.29
45.766
46.461
47.4
48.605
50.074
51.794
53.732
55.845
58.095
60.45
62.855
65.223
67.49
69.641
71.752
73.991
76.511
79.402
82.685
86.359
90.316
94.314
97.988
100.779
102.135
101.678
99.268
95.019
89.437
83.303
77.559
73.436
72.189
74.999
82.847
96.226
114.994
138.053
163.47
189.223
213.555
236.056
257.297
276.254
289.729
292.015
277.047
243.145
194.169
137.276
79.468
24.334
-28.717
-79.69
-125.557
-162.073
-183.788
-189.072
-181.467
-164.863
-143.924
-121.569
-97.839
-73.628
-50.047
-28.494
-11.176
0.601
6.564
7.157
3.594
-2.755
-10.624
-18.764
-26.191
-32.071
-35.878
-37.55
-37.337
-35.728
-33.348
-30.816
-28.575
