Name
Date of Birth,"Dec 28, 2003"
Recorded Date,2024-09-19 10:01:18 -0500
Classification,Sinus Rhythm
Symptoms,
Software Version,1.90
Device,"Watch4,4"
Sample Rate,512.711 hertz


Lead,Lead I
Unit,µV

-1056.478
-1388.567
-1568.905
-1571.33
-1427.893
-1211.836
-997.439
-833.535
-735.117
-682.387
-645.061
-598.427
-525.678
-430.121
-323.747
-217.619
-126.126
-54.653
-2.241
31.013
49.132
54.431
45.942
24.982
-6.771
-47.939
-96.149
-151.75
-217.802
-294.314
-378.236
-460.544
-526.705
-566.318
-573.379
-550.135
-507.591
-456.832
-410.285
-377.906
-364.059
-369.718
-387.99
-404.366
-401.721
-364.843
-287.426
-177.092
-51.674
67.093
159.318
214.052
230.008
212.557
171.675
119.658
69.187
32.471
23.141
51.621
121.266
230.668
367.026
511.203
647.502
761.293
848.307
914.005
964.24
1006.835
1044.891
1075.582
1095.258
1099.748
1088.394
1064.25
1031.859
996.163
959.169
920.532
880.093
837.98
796.566
759.22
726.349
695.619
661.037
615.743
555.478
479.314
393.244
306.123
228.282
170.751
136.462
123.39
125.409
131.731
137.35
141.917
146.861
156.495
171.828
190.719
211.679
233.345
256.237
283.035
315.738
355.742
401.791
449.897
498.654
549.77
612.378
701.069
823.992
981.498
1161.406
1342.271
1508.378
1650.459
1768.805
1871.124
1961.234
2040.302
2105.896
2153.038
2180.517
2188.799
2179.964
2157.879
2124.913
2083.064
2034.654
1980.786
1922.353
1860.659
1796.232
1729.497
1661.403
1592.246
1521.807
1450.271
1377.627
1303.527
1228.176
1151.76
1074.058
995.322
916.105
836.813
758.17
681.066
605.92
533.063
462.896
395.49
330.802
268.745
208.923
150.825
94.117
38.503
-16.288
-70.408
-124.053
-177.421
-230.611
-283.668
-336.627
-389.525
-442.41
-495.354
-548.397
-601.49
-654.52
-707.346
-759.822
-811.795
-863.098
-913.521
-962.81
-1010.739
-1057.134
-1101.867
-1144.858
-1186.019
-1225.269
-1262.543
-1297.806
-1331.091
-1362.462
-1391.99
-1419.766
-1445.921
-1470.648
-1494.203
-1516.872
-1538.901
-1560.508
-1581.798
-1602.788
-1623.444
-1643.615
-1663.132
-1681.891
-1699.789
-1716.752
-1732.998
-1748.888
-1764.782
-1781.25
-1798.711
-1817.269
-1836.986
-1857.666
-1878.407
-1898.052
-1915.428
-1928.865
-1936.919
-1938.45
-1932.215
-1917.782
-1895.941
-1867.836
-1834.825
-1798.962
-1762.143
-1726.573
-1695.099
-1669.352
-1649.643
-1636.018
-1628.128
-1625.334
-1627.263
-1632.411
-1637.996
-1642.222
-1644.021
-1642.237
-1636.248
-1625.025
-1606.607
-1580.464
-1547.005
-1505.254
-1455.195
-1397.826
-1334.217
-1268.679
-1204.172
-1138.868
-1069.152
-987.656
-889.86
-778.965
-661.567
-550.644
-457.647
-385.54
-333.351
-290.024
-241.412
-180.435
-102.451
-11.443
83.467
178.326
270.315
360.262
452.859
550.114
653.021
761.598
873.467
986.372
1098.596
1208.708
1315.85
1419.059
1516.853
1607.324
1688.766
1760.01
1820.308
1869.338
1906.833
1932.481
1946.244
1948.617
1940.712
1924.254
1901.077
1872.599
1840.33
1805.999
1771.574
1739.245
1710.399
1685.302
1663.789
1645.703
1630.67
1618.118
1606.912
1595.32
1582.23
1567.212
1550.28
1531.814
1512.049
1491.926
1472.707
1454.681
1438.307
1422.412
1405.148
1388.019
1372.065
1359.024
1351.398
1346.378
1340.829
1332.707
1320.324
1307.698
1300.624
1302.428
1312.738
1324.308
1326.37
1311.154
1277.771
1234.541
1195.722
1172.353
1168.299
1178.258
1188.798
1189.707
1176.019
1148.012
1113.863
1079.408
1047.123
1018.604
990.579
960.604
928.37
893.11
855.627
816.762
776.346
734.107
689.724
643.14
594.543
544.017
491.683
437.389
380.974
323.097
264.306
204.728
144.766
84.849
25.253
-33.146
-89.998
-146.357
-201.885
-255.366
-305.078
-347.615
-383.06
-414.83
-446.362
-482.266
-522.833
-563.729
-601.591
-632.95
-657.408
-678.456
-698.392
-718.913
-740.758
-762.875
-784.885
-806.986
-829.233
-851.9
-875.068
-898.563
-922.323
-946.367
-970.671
-995.199
-1019.917
-1044.745
-1069.583
-1094.331
-1118.85
-1143.015
-1166.753
-1190.016
-1212.784
-1235.063
-1256.873
-1278.253
-1299.256
-1319.933
-1340.327
-1360.479
-1380.427
-1400.223
-1419.926
-1439.604
-1459.326
-1479.148
-1499.102
-1519.217
-1539.507
-1559.975
-1580.619
-1601.425
-1622.367
-1643.427
-1664.591
-1685.845
-1707.178
-1728.577
-1750.024
-1771.5
-1792.987
-1814.469
-1835.929
-1857.352
-1878.724
-1900.033
-1921.269
-1942.425
-1963.493
-1984.467
-2005.338
-2026.096
-2046.733
-2067.24
-2087.608
-2107.831
-2127.901
-2147.813
-2167.565
-2187.156
-2206.586
-2225.857
-2244.97
-2263.927
-2282.733
-2301.391
-2319.903
-2338.273
-2356.504
-2374.603
-2392.574
-2410.423
-2428.157
-2445.782
-2463.307
-2480.741
-2498.091
-2515.362
-2532.56
-2549.687
-2566.746
-2583.74
-2600.667
-2617.526
-2634.316
-2651.035
-2667.684
-2684.259
-2700.76
-2717.178
-2733.504
-2749.731
-2765.847
-2781.842
-2797.7
-2813.404
-2828.938
-2844.295
-2859.472
-2874.468
-2889.278
-2903.886
-2918.28
-2932.447
-2946.365
-2960.004
-2973.319
-2986.245
-2998.73
-3010.741
-3022.256
-3033.258
-3043.728
-3053.634
-3062.944
-3071.64
-3079.706
-3087.128
-3093.877
-3099.904
-3105.207
-3109.834
-3113.892
-3117.539
-3120.908
-3124.071
-3127.106
-3130.119
-3133.123
-3136.077
-3138.854
-3141.16
-3142.78
-3143.622
-3143.542
-3142.466
-3140.53
-3137.937
-3135.054
-3132.5
-3130.688
-3129.909
-3130.583
-3132.768
-3135.991
-3139.478
-3142.001
-3142.014
-3138.185
-3129.167
-3113.387
-3089.865
-3058.57
-3020.206
-2976.247
-2928.728
-2879.979
-2832.792
-2790.47
-2756.29
-2732.722
-2721.313
-2723.219
-2738.305
-2764.648
-2800.615
-2844.128
-2893.09
-2947.257
-3003.104
-3053.761
-3092.849
-3113.803
-3115.701
-3103.808
-3083.426
-3060.279
-3037.249
-3013.878
-2990.972
-2969.136
-2949.137
-2932.654
-2919.943
-2910.506
-2903.749
-2898.352
-2893.022
-2887.146
-2880.445
-2872.917
-2864.883
-2856.626
-2848.367
-2840.463
-2833.304
-2827.053
-2821.708
-2817.157
-2813.137
-2809.417
-2805.835
-2802.198
-2798.344
-2794.178
-2789.612
-2784.606
-2779.166
-2773.28
-2766.938
-2760.146
-2752.892
-2745.183
-2737.046
-2728.506
-2719.601
-2710.376
-2700.872
-2691.133
-2681.192
-2671.067
-2660.773
-2650.318
-2639.707
-2628.943
-2618.03
-2606.965
-2595.76
-2584.424
-2572.965
-2561.397
-2549.728
-2537.968
-2526.125
-2514.209
-2502.232
-2490.208
-2478.155
-2466.09
-2454.035
-2442.008
-2430.032
-2418.129
-2406.317
-2394.615
-2383.037
-2371.596
-2360.306
-2349.178
-2338.221
-2327.446
-2316.86
-2306.47
-2296.283
-2286.304
-2276.536
-2266.98
-2257.636
-2248.501
-2239.573
-2230.846
-2222.313
-2213.967
-2205.798
-2197.798
-2189.955
-2182.258
-2174.697
-2167.26
-2159.933
-2152.705
-2145.562
-2138.493
-2131.485
-2124.525
-2117.602
-2110.706
-2103.827
-2096.955
-2090.081
-2083.199
-2076.301
-2069.382
-2062.437
-2055.46
-2048.449
-2041.401
-2034.314
-2027.187
-2020.019
-2012.813
-2005.568
-1998.286
-1990.972
-1983.627
-1976.256
-1968.862
-1961.449
-1954.021
-1946.583
-1939.137
-1931.689
-1924.242
-1916.799
-1909.363
-1901.937
-1894.523
-1887.122
-1879.737
-1872.366
-1865.011
-1857.671
-1850.344
-1843.03
-1835.725
-1828.427
-1821.133
-1813.839
-1806.541
-1799.234
-1791.914
-1784.574
-1777.211
-1769.816
-1762.385
-1754.911
-1747.387
-1739.808
-1732.167
-1724.458
-1716.674
-1708.81
-1700.861
-1692.82
-1684.683
-1676.445
-1668.101
-1659.647
-1651.079
-1642.393
-1633.584
-1624.65
-1615.586
-1606.389
-1597.056
-1587.583
-1577.967
-1568.205
-1558.295
-1548.233
-1538.016
-1527.643
-1517.111
-1506.417
-1495.561
-1484.539
-1473.352
-1461.998
-1450.476
-1438.788
-1426.933
-1414.911
-1402.724
-1390.372
-1377.859
-1365.184
-1352.352
-1339.364
-1326.225
-1312.939
-1299.512
-1285.949
-1272.26
-1258.452
-1244.536
-1230.523
-1216.426
-1202.256
-1188.028
-1173.756
-1159.457
-1145.145
-1130.84
-1116.557
-1102.315
-1088.132
-1074.029
-1060.023
-1046.135
-1032.382
-1018.783
-1005.355
-992.114
-979.077
-966.26
-953.676
-941.339
-929.263
-917.461
-905.945
-894.725
-883.81
-873.204
-862.908
-852.92
-843.236
-833.848
-824.749
-815.927
-807.372
-799.074
-791.024
-783.215
-775.64
-768.285
-761.136
-754.177
-747.39
-740.76
-734.273
-727.916
-721.673
-715.529
-709.465
-703.467
-697.521
-691.603
-685.682
-679.716
-673.653
-667.452
-661.091
-654.542
-647.777
-640.763
-633.453
-625.827
-617.898
-609.694
-601.261
-592.646
-583.856
-574.933
-565.97
-557.018
-548.092
-539.115
-529.869
-520.164
-509.938
-499.194
-487.984
-476.535
-465.146
-454.288
-444.715
-437.136
-432.086
-429.784
-430.038
-432.161
-435.185
-437.927
-438.766
-436.038
-428.164
-413.967
-393.132
-366.176
-334.13
-298.468
-261.389
-225.436
-193.485
-168.423
-152.231
-146.186
-151.165
-167.144
-193.103
-227.328
-267.132
-309.178
-350.414
-387.662
-417.726
-438.591
-449.124
-448.894
-438.689
-419.931
-394.472
-365.348
-335.752
-307.734
-283.035
-262.168
-244.897
-232.198
-223.806
-219.468
-219.192
-220.015
-219.953
-216.783
-207.769
-194.889
-180.259
-166.122
-155.48
-147.164
-139.757
-132.741
-125.005
-117.28
-110.238
-103.429
-96.727
-89.877
-82.637
-75.204
-67.699
-60.059
-52.291
-44.428
-36.496
-28.555
-20.639
-12.744
-4.882
2.909
10.577
18.086
25.417
32.563
39.526
46.313
52.927
59.378
65.684
71.852
77.887
83.796
89.585
95.262
100.843
106.338
111.763
117.136
122.469
127.776
133.064
138.34
143.609
148.873
154.135
159.397
164.663
169.938
175.224
180.525
185.845
191.184
196.544
201.925
207.324
212.738
218.164
223.597
229.032
234.465
239.891
245.305
250.701
256.074
261.419
266.731
272.004
277.232
282.409
287.53
292.59
297.583
302.504
307.35
312.118
316.803
321.403
325.917
330.344
334.683
338.932
343.094
347.168
351.157
355.063
358.888
362.636
366.312
369.921
373.469
376.961
380.403
383.803
387.167
390.503
393.817
397.117
400.41
403.702
407.001
410.314
413.648
417.008
420.403
423.837
427.315
430.844
434.427
438.068
441.771
445.537
449.368
453.266
457.231
461.263
465.36
469.522
473.747
478.031
482.371
486.764
491.205
495.688
500.21
504.762
509.34
513.936
518.544
523.156
527.766
532.365
536.947
541.505
546.031
550.518
554.958
559.346
563.673
567.933
572.12
576.228
580.253
584.19
588.036
591.787
595.442
598.997
602.451
605.803
609.052
612.198
615.239
618.177
621.012
623.747
626.384
628.924
631.372
633.731
636.004
638.195
640.309
642.347
644.314
646.213
648.049
649.824
651.543
653.208
654.825
656.397
657.926
659.413
660.861
662.268
663.633
664.955
666.232
667.461
668.64
669.765
670.835
671.846
672.796
673.68
674.492
675.227
675.877
676.436
676.894
677.243
677.472
677.576
677.546
677.376
677.06
676.593
675.967
675.179
674.226
673.106
671.814
670.347
668.701
666.877
664.875
662.698
660.346
657.824
655.131
652.275
649.261
646.093
642.774
639.299
635.654
631.836
627.842
623.674
619.34
614.857
610.251
605.567
600.856
596.16
591.515
586.945
582.458
578.072
573.793
569.643
565.666
561.905
558.414
555.242
552.401
549.872
547.59
545.426
543.246
540.915
538.277
535.288
532.002
528.551
525.206
522.185
519.579
517.539
516.143
515.193
514.365
513.111
510.658
506.565
500.598
492.423
482.101
470.205
457.612
445.731
436.259
430.554
430.022
436.255
450.131
471.716
500.337
534.48
572.361
612.011
650.735
685.287
712.792
731.115
739.106
736.307
722.261
697.307
663.085
622.24
577.984
533.389
490.9
452.984
422.53
401.474
390.505
389.31
396.484
410.333
429.259
451.045
472.9
492.769
509.393
522.17
531.322
537.23
540.321
541.579
542.327
543.454
545.41
548.277
551.754
555.576
559.556
563.347
566.526
568.854
570.279
570.912
571.015
570.826
570.464
570.021
569.568
569.136
568.746
568.415
568.111
567.798
567.473
567.137
566.8
566.478
566.145
565.755
565.258
564.596
563.735
562.668
561.394
559.92
558.258
556.419
554.427
552.315
550.103
547.803
545.424
542.971
540.457
537.906
535.34
532.78
530.244
527.749
525.309
522.94
520.652
518.453
516.346
514.333
512.417
510.602
508.893
507.294
505.806
504.43
503.166
502.016
500.976
500.043
499.212
498.474
497.821
497.245
496.736
496.285
495.88
495.512
495.17
494.843
494.521
494.194
493.851
493.481
493.075
492.622
492.113
491.538
490.888
490.155
489.333
488.412
487.388
486.254
485.004
483.634
482.138
480.514
478.756
476.863
474.833
472.664
470.356
467.91
465.326
462.607
459.754
456.77
453.659
450.423
447.066
443.592
440.004
436.306
432.502
428.595
424.589
420.488
416.293
412.008
407.635
403.177
398.637
394.018
389.323
384.555
379.72
374.819
369.858
364.84
359.769
354.65
349.486
344.282
339.042
333.772
328.477
323.162
317.833
312.497
307.159
301.828
296.51
291.212
285.942
280.707
275.517
270.381
265.31
260.314
255.407
250.604
245.918
241.362
236.95
232.695
228.609
224.701
220.982
217.457
214.136
211.029
208.146
205.499
203.1
200.96
199.092
197.506
196.209
195.207
194.501
194.087
193.964
194.13
194.586
195.337
196.385
197.721
199.337
201.22
203.345
205.684
208.192
210.815
213.514
216.256
219.019
221.798
224.583
227.364
230.142
232.898
235.617
238.299
240.929
243.499
246.022
248.517
251.031
253.633
256.359
259.217
262.206
265.287
268.422
271.57
274.659
277.626
280.414
282.95
285.175
287.034
288.435
289.274
289.439
288.787
287.224
284.703
281.183
276.664
271.155
264.667
257.255
248.994
239.953
230.218
219.888
209.061
197.885
186.543
175.197
164.032
153.204
142.818
132.991
123.825
115.406
107.831
101.184
95.506
90.842
87.229
84.657
83.12
82.577
82.924
84.066
85.902
88.309
91.196
94.481
98.023
101.651
105.251
108.745
112.151
115.595
119.14
122.77
126.543
130.592
134.841
139.016
142.593
144.761
144.93
142.869
138.3
130.936
121.021
109.233
96.788
85.525
76.87
71.738
71.233
76.395
87.779
105.558
128.86
155.984
185.108
213.819
240.178
262.631
280.439
294.449
303.03
302.328
288.303
256.145
207.239
148.975
87.089
27.516
-27.816
-82.209
-133.715
-178.112
-211.692
-228.338
-227.904
-216.199
-198.217
-180.54
-167.486
-158.094
-151.757
-148.125
-147.173
-150.448
-158.381
-169.542
-181.753
-193.343
-203.455
-211.79
-218.26
-222.462
-224.202
-224.082
-223.187
-222.295
-221.772
-221.689
-221.95
-222.686
-224.029
-225.795
-227.599
-229.115
-230.182
-230.785
-230.999
-230.825
-230.21
-229.159
-227.725
-225.975
-223.963
-221.713
-219.223
-216.51
-213.613
-210.579
-207.464
-204.308
-201.133
-197.956
-194.791
-191.647
-188.536
-185.466
-182.437
-179.45
-176.51
-173.62
-170.783
-168.004
-165.281
-162.607
-159.973
-157.373
-154.804
-152.266
-149.761
-147.293
-144.863
-142.477
-140.143
-137.867
-135.656
-133.513
-131.444
-129.453
-127.548
-125.734
-124.02
-122.413
-120.921
-119.554
-118.32
-117.228
-116.287
-115.504
-114.887
-114.444
-114.182
-114.106
-114.222
-114.535
-115.05
-115.769
-116.697
-117.833
-119.178
-120.731
-122.49
-124.45
-126.606
-128.952
-131.479
-134.178
-137.04
-140.052
-143.203
-146.479
-149.867
-153.35
-156.915
-160.544
-164.222
-167.932
-171.657
-175.378
-179.081
-182.748
-186.362
-189.908
-193.371
-196.736
-199.989
-203.118
-206.11
-208.955
-211.643
-214.165
-216.515
-218.687
-220.677
-222.482
-224.101
-225.533
-226.78
-227.846
-228.734
-229.449
-229.998
-230.388
-230.628
-230.727
-230.694
-230.541
-230.279
-229.918
-229.471
-228.949
-228.365
-227.73
-227.055
-226.351
-225.629
-224.9
-224.172
-223.455
-222.757
-222.086
-221.448
-220.848
-220.292
-219.783
-219.322
-218.911
-218.55
-218.238
-217.974
-217.753
-217.574
-217.43
-217.316
-217.227
-217.155
-217.091
-217.027
-216.955
-216.862
-216.74
-216.577
-216.362
-216.084
-215.733
-215.298
-214.77
-214.138
-213.393
-212.525
-211.526
-210.387
-209.102
-207.661
-206.059
-204.291
-202.354
-200.244
-197.961
-195.505
-192.874
-190.071
-187.098
-183.958
-180.655
-177.192
-173.573
-169.808
-165.903
-161.869
-157.717
-153.461
-149.116
-144.696
-140.219
-135.698
-131.149
-126.585
-122.019
-117.465
-112.935
-108.44
-103.995
-99.612
-95.307
-91.095
-86.987
-82.996
-79.131
-75.401
-71.817
-68.385
-65.109
-61.993
-59.045
-56.279
-53.719
-51.375
-49.251
-47.351
-45.67
-44.203
-42.948
-41.879
-40.952
-40.125
-39.349
-38.6
-37.877
-37.164
-36.437
-35.666
-34.809
-33.86
-32.841
-31.754
-30.578
-29.29
-27.882
-26.42
-25.042
-23.882
-23.065
-22.65
-22.68
-23.259
-24.414
-26.088
-28.14
-30.228
-32.039
-33.432
-34.244
-34.346
-33.884
-33.041
-32.169
-31.975
-32.895
-35.188
-39.248
-45.019
-51.864
-58.897
-64.689
-67.518
-66.21
-59.515
-45.953
-24.885
3.622
38.748
78.61
121.171
164.619
206.373
243.347
273.022
293.099
302.028
299.323
284.426
257.165
219.586
174.594
124.244
71.686
18.568
-33.799
-80.047
-116.347
-140.271
-150.248
-149.339
-140.332
-124.707
-103.846
-79.453
-55.371
-35.694
-24.758
-23.42
-27.613
-33.473
-36.629
-34.958
-30.69
-25.515
-20.713
-17.03
-13.507
-9.764
-6.248
-3.396
-1.649
-1.139
-1.62
-2.824
-4.595
-6.782
-9.199
-11.669
-14.082
-16.376
-18.53
-20.55
-22.412
-24.091
-25.586
-26.899
-28.037
-29.015
-29.859
-30.591
-31.248
-31.871
-32.497
-33.165
-33.904
-34.722
-35.627
-36.617
-37.684
-38.819
-40.01
-41.238
-42.488
-43.744
-44.992
-46.216
-47.403
-48.535
-49.593
-50.559
-51.417
-52.156
-52.767
-53.241
-53.573
-53.76
-53.799
-53.693
-53.442
-53.046
-52.506
-51.823
-50.998
-50.037
-48.943
-47.724
-46.386
-44.938
-43.392
-41.759
-40.051
-38.282
-36.464
-34.61
-32.733
-30.848
-28.966
-27.102
-25.268
-23.479
-21.745
-20.081
-18.499
-17.01
-15.625
-14.353
-13.203
-12.184
-11.303
-10.567
-9.979
-9.545
-9.268
-9.149
-9.189
-9.389
-9.745
-10.255
-10.915
-11.719
-12.66
-13.73
-14.921
-16.222
-17.623
-19.115
-20.686
-22.325
-24.02
-25.759
-27.532
-29.326
-31.13
-32.934
-34.726
-36.495
-38.233
-39.931
-41.578
-43.169
-44.696
-46.152
-47.532
-48.831
-50.046
-51.175
-52.214
-53.164
-54.025
-54.798
-55.485
-56.09
-56.615
-57.066
-57.448
-57.766
-58.026
-58.234
-58.397
-58.52
-58.611
-58.676
-58.721
-58.752
-58.773
-58.791
-58.809
-58.831
-58.859
-58.896
-58.941
-58.997
-59.062
-59.135
-59.214
-59.295
-59.374
-59.445
-59.501
-59.536
-59.539
-59.502
-59.415
-59.265
-59.044
-58.74
-58.34
-57.833
-57.207
-56.451
-55.555
-54.506
-53.294
-51.908
-50.34
-48.58
-46.622
-44.46
-42.09
-39.509
-36.716
-33.711
-30.498
-27.079
-23.46
-19.648
-15.652
-11.484
-7.157
-2.688
1.906
6.606
11.388
16.228
21.1
25.98
30.842
35.659
40.404
45.05
49.575
53.954
58.161
62.17
65.954
69.485
72.738
75.687
78.308
80.577
82.475
83.988
85.113
85.844
86.178
86.11
85.629
84.733
83.432
81.735
79.655
77.212
74.428
71.346
68.028
64.529
60.9
57.176
53.37
49.506
45.615
41.721
37.862
34.054
30.297
26.621
23.065
19.653
16.407
13.299
10.263
7.26
4.267
1.288
-1.636
-4.488
-7.269
-9.95
-12.511
-14.889
-16.996
-18.847
-20.416
-21.59
-22.213
-21.973
-20.513
-17.628
-13.163
-6.974
0.779
9.787
19.693
29.804
39.466
48.226
55.676
61.727
66.922
72.038
77.833
85.429
95.918
110.284
129.567
154.289
184.013
217.828
254.837
293.563
332.072
368.168
399.01
421.781
434.618
436.077
425.307
403.028
370.443
328.653
277.703
216.896
147.87
76.011
11.556
-34.856
-58.645
-61.693
-51.742
-37.173
-21.896
-6.41
10.454
28.96
47.855
65.224
79.07
88.404
92.962
93.225
90.841
87.717
85.003
83.284
82.774
83.598
86.162
90.623
96.429
102.593
108.404
113.574
118.087
122.042
125.349
127.896
129.86
131.65
133.609
135.925
138.631
141.629
144.898
148.474
152.335
156.412
160.619
164.86
169.081
173.274
177.411
181.445
185.318
188.954
192.3
195.324
198.004
200.326
202.281
203.858
205.053
205.874
206.329
206.43
206.186
205.604
204.69
203.463
201.941
200.152
198.119
195.86
193.395
190.744
187.926
184.962
181.872
178.672
175.382
172.021
168.61
165.172
161.724
158.286
154.874
151.504
148.191
144.945
141.777
138.695
135.705
132.813
130.021
127.33
124.741
122.25
119.853
117.545
115.319
113.166
111.075
109.035
107.033
105.056
103.09
101.119
99.129
97.104
95.027
92.883
90.657
88.332
85.894
83.329
80.624
77.766
74.744
71.549
68.172
64.608
60.85
56.897
52.747
48.399
43.857
39.124
34.205
29.106
23.837
18.406
12.824
7.104
1.259
-4.698
-10.751
-16.885
-23.084
-29.332
-35.611
-41.906
-48.2
-54.476
-60.719
-66.911
-73.038
-79.086
-85.039
-90.886
-96.613
-102.21
-107.667
-112.975
-118.127
-123.117
-127.939
-132.59
-137.068
-141.37
-145.497
-149.448
-153.227
-156.835
-160.275
-163.552
-166.67
-169.635
-172.451
-175.124
-177.659
-180.062
-182.337
-184.489
-186.522
-188.44
-190.247
-191.944
-193.536
-195.024
-196.409
-197.692
-198.873
-199.951
-200.925
-201.792
-202.551
-203.196
-203.724
-204.13
-204.41
-204.557
-204.567
-204.433
-204.149
-203.709
-203.105
-202.332
-201.382
-200.25
-198.929
-197.416
-195.707
-193.8
-191.693
-189.388
-186.886
-184.191
-181.307
-178.239
-174.992
-171.575
-167.996
-164.265
-160.391
-156.386
-152.264
-148.039
-143.727
-139.345
-134.91
-130.437
-125.945
-121.452
-116.974
-112.529
-108.135
-103.809
-99.571
-95.44
-91.437
-87.579
-83.882
-80.362
-77.029
-73.895
-70.966
-68.245
-65.737
-63.444
-61.367
-59.515
-57.891
-56.503
-55.351
-54.438
-53.763
-53.329
-53.139
-53.193
-53.489
-54.025
-54.798
-55.799
-57.02
-58.449
-60.062
-61.838
-63.746
-65.747
-67.809
-69.898
-71.975
-73.999
-75.918
-77.662
-79.183
-80.454
-81.47
-82.269
-82.895
-83.375
-83.77
-84.177
-84.632
-85.13
-85.57
-85.721
-85.382
-84.471
-82.987
-81.009
-78.817
-76.821
-75.596
-75.967
-78.693
-84.292
-92.878
-104.134
-117.21
-130.934
-143.961
-154.537
-160.827
-161.17
-154.474
-140.508
-119.991
-94.185
-64.518
-33.073
-2.379
24.748
45.585
58.298
62.002
56.249
40.856
16.469
-15.585
-53.201
-93.544
-134.142
-172.815
-207.053
-234.647
-254.3
-265.079
-267.363
-263.212
-253.571
-239.301
-221.391
-198.704
-173.078
-149.309
-131.783
-125.969
-132.235
-144.861
-158.21
-166.822
-169.078
-167.81
-164.763
-160.944
-156.562
-150.72
-143.899
-136.984
-130.345
-124.373
-119.084
-114.41
-110.429
-106.987
-103.699
-100.268
-96.566
-92.615
-88.554
-84.434
-80.214
-75.879
-71.456
-66.993
-62.535
-58.086
-53.63
-49.176
-44.77
-40.475
-36.345
-32.41
-28.676
-25.147
-21.822
-18.704
-15.794
-13.087
-10.581
-8.28
-6.184
-4.299
-2.626
-1.158
0.117
1.215
2.155
2.954
3.626
4.183
4.638
5
5.277
5.477
5.606
5.673
5.69
5.666
5.611
5.536
5.448
5.356
5.268
5.187
5.118
5.063
5.024
5.002
4.997
5.009
5.036
5.077
5.128
5.187
5.25
5.311
5.364
5.404
5.421
5.41
5.361
5.265
5.115
4.902
4.617
4.253
3.803
3.259
2.614
1.862
0.996
0.013
-1.094
-2.328
-3.692
-5.189
-6.818
-8.581
-10.476
-12.501
-14.655
-16.932
-19.33
-21.841
-24.462
-27.184
-30.001
-32.904
-35.884
-38.931
-42.035
-45.185
-48.37
-51.576
-54.793
-58.008
-61.207
-64.379
-67.511
-70.591
-73.606
-76.544
-79.395
-82.146
-84.788
-87.311
-89.706
-91.964
-94.078
-96.042
-97.848
-99.493
-100.971
-102.28
-103.417
-104.38
-105.168
-105.781
-106.22
-106.486
-106.582
-106.509
-106.273
-105.876
-105.325
-104.625
-103.782
-102.803
-101.694
-100.464
-99.12
-97.669
-96.119
-94.477
-92.751
-90.949
-89.078
-87.145
-85.156
-83.119
-81.038
-78.92
-76.77
-74.59
-72.386
-70.16
-67.915
-65.654
-63.377
-61.087
-58.784
-56.47
-54.145
-51.81
-49.464
-47.108
-44.741
-42.363
-39.972
-37.569
-35.153
-32.726
-30.289
-27.843
-25.392
-22.939
-20.487
-18.041
-15.604
-13.184
-10.784
-8.413
-6.077
-3.784
-1.542
0.636
2.74
4.756
6.674
8.479
10.158
11.696
13.079
14.295
15.333
16.182
16.829
17.261
17.467
17.438
17.164
16.637
15.849
14.793
13.469
11.877
10.021
7.906
5.536
2.915
0.051
-3.047
-6.374
-9.924
-13.694
-17.681
-21.876
-26.257
-30.797
-35.469
-40.246
-45.094
-49.971
-54.829
-59.631
-64.351
-68.969
-73.463
-77.786
-81.89
-85.723
-89.233
-92.373
-95.116
-97.428
-99.287
-100.724
-101.784
-102.55
-103.132
-103.549
-103.806
-103.937
-103.901
-103.649
-103.114
-102.06
-100.278
-97.79
-94.59
-90.679
-86.328
-81.678
-76.881
-72.545
-69.126
-66.702
-65.412
-65.03
-64.707
-63.914
-62.149
-58.106
-50.65
-38.902
-21.805
0.735
27.809
58.928
93.552
129.999
166.442
200.751
229.935
252.019
265.992
270.09
263.602
247.907
224.089
194.04
158.75
116.09
66.639
13.857
-35.272
-69.741
-83.214
-73.734
-44.589
-5.846
33.801
66.093
85.302
92.673
91.608
87.895
87.236
91.138
98.879
108.06
116.514
123.814
130.459
137.45
145.13
153.159
161.045
168.184
174.367
179.697
184.258
188.201
191.692
194.854
197.844
200.813
203.824
206.896
210.042
213.266
216.574
219.972
223.455
227.006
230.606
234.234
237.861
241.448
244.947
248.303
251.458
254.359
256.967
259.254
261.2
262.789
264.007
264.848
265.309
265.392
265.098
264.427
263.38
261.961
260.178
258.043
255.57
252.774
249.672
246.278
242.608
238.675
234.496
230.084
225.455
220.623
215.606
210.422
205.092
199.637
194.08
188.442
182.745
177.011
171.262
165.516
159.792
154.111
148.487
142.939
137.483
132.134
126.906
121.811
116.862
112.068
107.437
102.977
98.692
94.585
90.659
86.913
83.345
79.953
76.732
73.676
70.778
68.028
65.417
62.933
60.564
58.295
56.112
54.001
51.946
49.931
47.941
45.959
43.971
41.96
39.914
37.817
35.656
33.418
31.093
28.668
26.136
23.486
20.713
17.811
14.775
11.604
8.295
4.851
1.273
-2.436
-6.269
-10.221
-14.281
-18.441
-22.689
-27.011
-31.394
-35.823
-40.28
-44.749
-49.212
-53.649
-58.043
-62.372
-66.619
-70.761
-74.781
-78.657
-82.37
-85.902
-89.233
-92.346
-95.223
-97.848
-100.206
-102.283
-104.066
-105.543
-106.704
-107.538
-108.04
-108.201
-108.018
-107.488
-106.608
-105.38
-103.806
-101.888
-99.632
-97.044
-94.131
-90.902
-87.368
-83.54
-79.431
-75.053
-70.422
-65.553
-60.464
-55.171
-49.694
-44.049
-38.257
-32.337
-26.308
-20.191
-14.004
-7.766
-1.499
4.779
11.048
17.287
23.479
29.604
35.645
41.583
47.403
53.089
58.627
64.003
69.203
74.215
79.027
83.625
87.999
92.141
96.039
99.685
103.073
106.196
109.051
111.634
113.943
115.974
117.725
119.195
120.384
121.291
121.915
122.254
122.31
122.087
121.591
120.826
119.801
118.524
117.004
115.254
113.285
111.108
108.732
106.169
103.43
100.533
97.492
94.324
91.044
87.668
84.214
80.705
77.154
73.571
69.963
66.328
62.673
59.009
55.347
51.696
48.078
44.517
41.056
37.749
34.63
31.726
29.056
26.624
24.451
22.561
20.961
19.674
18.721
18.124
17.927
18.157
18.785
19.745
20.925
22.18
23.425
24.563
25.454
26.063
26.415
26.628
26.981
27.691
28.828
30.516
32.922
35.957
39.39
42.762
45.285
46.413
45.917
43.474
38.77
32.007
23.84
15.489
8.786
5.23
5.889
12.06
25.053
45.516
73.384
107.604
146.185
187.254
228.943
268.678
303.55
330.699
347.5
352.242
343.755
321.743
287.544
243.088
190.927
132.078
65.457
-7.51
-82.825
-152.454
-205
-234.374
-239.468
-223.565
-195.483
-162.241
-129.693
-104.341
-88.781
-83.428
-86.505
-92.361
-96.152
-95.75
-90.973
-84.068
-77.28
-71.203
-65.531
-59.442
-52.582
-45.329
-38.32
-32.187
-27.1
-22.921
-19.479
-16.552
-13.985
-11.678
-9.493
-7.286
-4.939
-2.366
0.472
3.569
6.912
10.497
14.326
18.39
22.65
27.045
31.51
35.987
40.431
44.796
49.03
53.071
56.853
60.329
63.471
66.258
68.681
70.727
72.386
73.656
74.551
75.086
75.272
75.122
74.641
73.842
72.743
71.366
69.73
67.852
65.747
63.431
60.92
58.23
55.375
52.369
49.222
45.947
42.562
39.08
35.519
31.894
28.217
24.504
20.77
17.026
13.286
9.559
5.855
2.185
-1.442
-5.016
-8.53
-11.975
-15.344
-18.63
-21.826
-24.927
-27.929
-30.826
-33.616
-36.294
-38.857
-41.301
-43.626
-45.828
-47.905
-49.855
-51.677
-53.368
-54.928
-56.356
-57.65
-58.809
-59.832
-60.718
-61.466
-62.073
-62.54
-62.863
-63.043
-63.078
-62.966
-62.706
-62.299
-61.744
-61.041
-60.19
-59.193
-58.05
-56.764
-55.336
-53.768
-52.065
-50.228
-48.264
-46.175
-43.967
-41.645
-39.215
-36.683
-34.057
-31.342
-28.547
-25.68
-22.748
-19.761
-16.728
-13.658
-10.561
-7.448
-4.329
-1.215
1.884
4.956
7.99
10.975
13.901
16.756
19.529
22.212
24.794
27.264
29.615
31.838
33.923
35.865
37.655
39.287
40.755
42.054
43.178
44.124
44.886
45.463
45.85
46.046
46.05
45.86
45.476
44.899
44.131
43.174
42.032
40.708
39.207
37.534
35.696
33.699
31.552
29.261
26.835
24.284
21.617
18.844
15.974
13.017
9.985
6.888
3.737
0.541
-2.687
-5.937
-9.197
-12.456
-15.701
-18.92
-22.102
-25.234
-28.305
-31.304
-34.219
-37.041
-39.761
-42.369
-44.857
-47.219
-49.447
-51.536
-53.481
-55.278
-56.923
-58.412
-59.745
-60.921
-61.939
-62.8
-63.506
-64.058
-64.459
-64.712
-64.82
-64.785
-64.613
-64.306
-63.871
-63.314
-62.643
-61.865
-60.989
-60.024
-58.977
-57.854
-56.658
-55.393
-54.061
-52.665
-51.208
-49.693
-48.123
-46.505
-44.846
-43.158
-41.447
-39.717
-37.972
-36.214
-34.455
-32.706
-30.977
-29.276
-27.607
-25.974
-24.379
-22.825
-21.306
-19.805
-18.297
-16.746
-15.127
-13.429
-11.632
-9.713
-7.637
-5.357
-2.847
-0.118
2.809
5.897
9.092
12.371
15.677
18.894
21.984
24.954
27.875
30.948
34.343
38.114
42.287
46.862
51.59
56.112
60.01
62.619
63.379
61.946
58.116
51.998
44.314
36.141
28.525
22.819
20.394
22.46
30.195
44.288
64.367
89.393
118.413
150.02
182.241
212.86
239.172
258.506
269.18
270.105
259.918
238.503
207.522
168.93
124.929
76.173
21.537
-37.857
-96.779
-146.265
-177.537
-186.924
-177.384
-157.479
-135.62
-116.509
-101.466
-88.7
-76.6
-65.241
-55.362
-48.125
-43.884
-41.978
-41.321
-40.701
-39.515
-37.666
-35.227
-32.464
-29.649
-27.015
-24.922
-23.736
-23.582
-24.452
-26.235
-28.712
-31.709
-35.073
-38.6
-42.126
-45.536
-48.752
-51.756
-54.555
-57.134
-59.482
-61.602
-63.49
-65.166
-66.65
-67.952
-69.095
-70.107
-71.016
-71.864
-72.672
-73.442
-74.173
-74.853
-75.463
-75.99
-76.413
-76.704
-76.842
-76.808
-76.584
-76.157
-75.512
-74.632
-73.498
-72.096
-70.412
-68.443
-66.183
-63.631
-60.79
-57.664
-54.261
-50.593
-46.673
-42.511
-38.12
-33.515
-28.71
-23.724
-18.578
-13.291
-7.886
-2.387
3.178
8.782
14.398
19.996
25.549
31.026
36.399
41.637
46.713
51.596
56.26
60.675
64.814
68.651
72.161
75.319
78.103
80.492
82.466
84.007
85.098
85.725
85.878
85.544
84.716
83.388
81.557
79.222
76.385
73.048
69.218
64.905
60.12
54.877
49.191
43.082
36.571
29.678
22.431
14.854
6.977
-1.172
-9.562
-18.159
-26.932
-35.845
-44.863
-53.952
-63.075
-72.198
-81.283
-90.296
-99.202
-107.967
-116.558
-124.942
-133.09
-140.971
-148.559
-155.829
-162.756
-169.321
-175.503
-181.287
-186.66
-191.609
-196.127
-200.208
-203.849
-207.052
-209.818
-212.153
-214.066
-215.568
-216.673
-217.396
-217.757
-217.775
-217.474
-216.878
-216.013
-214.906
-213.587
-212.084
-210.43
-208.653
-206.787
-204.861
-202.907
-200.954
-199.034
-197.173
-195.4
-193.741
-192.221
-190.86
-189.682
-188.703
-187.939
-187.405
-187.112
-187.067
-187.276
-187.742
-188.465
-189.444
-190.672
-192.142
-193.845
-195.767
-197.894
-200.21
-202.696
-205.332
-208.096
-210.966
-213.916
-216.924
-219.964
-223.01
-226.036
-229.017
-231.927
-234.742
-237.438
-239.99
-242.376
-244.575
-246.568
-248.337
-249.866
-251.141
-252.151
-252.887
-253.344
-253.517
-253.405
-253.008
-252.331
-251.378
-250.159
-248.682
-246.96
-245.005
-242.833
-240.463
-237.911
-235.197
-232.342
-229.367
-226.292
-223.139
-219.931
-216.687
-213.43
-210.177
-206.952
-203.773
-200.661
-197.634
-194.708
-191.897
-189.212
-186.663
-184.252
-181.981
-179.846
-177.845
-175.974
-174.228
-172.601
-171.085
-169.673
-168.357
-167.126
-165.967
-164.868
-163.812
-162.79
-161.793
-160.812
-159.835
-158.846
-157.823
-156.746
-155.592
-154.33
-152.924
-151.323
-149.476
-147.343
-144.888
-142.072
-138.844
-135.139
-130.905
-126.122
-120.794
-114.953
-108.636
-101.863
-94.698
-87.253
-79.577
-71.682
-63.502
-54.848
-45.604
-35.747
-25.201
-13.95
-2.194
9.703
21.127
31.314
39.758
46.129
50.069
51.462
50.685
48.664
46.923
47.034
50.162
57.375
69.878
88.731
114.345
146.089
182.33
221.408
261.985
302.374
340.243
372.761
397.337
412.41
417.47
412.027
395.375
367.69
330.412
286.196
238.312
189.683
142.665
99.892
64.422
38.344
22.461
16.376
18.647
27.656
41.9
59.326
77.331
94.023
108.311
119.738
128.613
135.36
140.329
144.295
148.333
153.054
158.681
165.186
172.185
179.355
186.477
193.169
198.986
203.693
207.215
209.621
211.121
211.877
212.003
211.651
210.992
210.193
209.392
208.655
208.002
207.444
207.003
206.704
206.561
206.557
206.658
206.828
207.041
207.276
207.509
207.705
207.824
207.818
207.657
207.329
206.831
206.166
205.339
204.355
203.229
201.987
200.655
199.255
197.804
196.315
194.805
193.295
191.804
190.353
188.954
187.617
186.352
185.167
184.068
183.058
182.136
181.299
180.545
179.873
179.281
178.767
178.328
177.958
177.653
177.408
177.215
177.067
176.954
176.865
176.791
176.72
176.642
176.546
176.42
176.252
176.032
175.749
175.393
174.952
174.416
173.777
173.026
172.156
171.16
170.032
168.767
167.361
165.812
164.118
162.277
160.289
158.155
155.875
153.452
150.887
148.184
145.348
142.382
139.293
136.087
132.773
129.357
125.848
122.256
118.591
114.863
111.082
107.259
103.406
99.535
95.656
91.782
87.925
84.096
80.306
76.568
72.891
69.287
65.767
62.339
59.015
55.803
52.713
49.753
46.933
44.261
41.744
39.39
37.207
35.201
33.376
31.739
30.294
29.044
27.993
27.141
26.491
26.042
25.794
25.746
25.894
26.237
26.769
27.486
28.383
29.452
30.688
32.081
33.625
35.31
37.128
39.068
41.12
43.274
45.518
47.84
50.229
52.671
55.155
57.667
60.195
62.726
65.248
67.748
70.216
72.64
75.009
77.315
79.548
81.699
83.761
85.729
87.595
89.356
91.008
92.546
93.97
95.278
96.468
97.54
98.494
99.331
100.052
100.659
101.153
101.538
101.817
101.992
102.068
102.049
101.938
101.74
101.459
101.099
100.662
100.151
99.57
98.917
98.194
97.4
96.532
95.588
94.564
93.454
92.254
90.956
89.553
88.036
86.397
84.627
82.716
80.654
78.43
76.035
73.457
70.687
67.715
64.53
61.124
57.489
53.616
49.5
45.133
40.51
35.628
30.481
25.067
19.389
13.45
7.259
0.829
-5.828
-12.698
-19.762
-27.003
-34.398
-41.929
-49.58
-57.335
-65.173
-73.071
-80.997
-88.923
-96.825
-104.677
-112.455
-120.134
-127.681
-135.066
-142.263
-149.242
-155.971
-162.405
-168.481
-174.141
-179.338
-184.03
-188.195
-191.808
-194.833
-197.243
-199.011
-200.121
-200.592
-200.446
-199.717
-198.46
-196.69
-194.469
-191.933
-189.132
-186.058
-182.636
-178.584
-173.658
-167.874
-161.229
-153.755
-145.732
-137.357
-129.043
-121.733
-116.221
-112.831
-111.621
-112.082
-113.306
-114.74
-115.42
-113.596
-107.59
-95.984
-78.047
-54.315
-25.804
6.861
42.313
78.211
111.839
139.921
159.832
170.317
170.228
158.781
136.887
106.081
68.651
26.025
-22.708
-76.8
-133.36
-185.447
-223.593
-243.977
-246.801
-236.43
-220.032
-199.695
-176.902
-154.753
-136.251
-126.768
-129.142
-140.854
-156.34
-169.46
-176.725
-178.398
-177.61
-177.125
-177.87
-179.643
-181.368
-182.545
-183.598
-185.007
-187.054
-189.721
-192.731
-195.783
-198.683
-201.249
-203.333
-204.869
-205.844
-206.279
-206.2
-205.611
-204.512
-202.918
-200.842
-198.289
-195.266
-191.783
-187.878
-183.613
-179.06
-174.288
-169.344
-164.253
-159.037
-153.719
-148.315
-142.846
-137.321
-131.746
-126.137
-120.515
-114.903
-109.323
-103.79
-98.308
-92.885
-87.528
-82.243
-77.04
-71.929
-66.915
-62.01
-57.225
-52.571
-48.059
-43.698
-39.492
-35.445
-31.557
-27.831
-24.267
-20.864
-17.621
-14.535
-11.605
-8.829
-6.204
-3.726
-1.391
0.806
2.871
4.811
6.634
8.348
9.96
11.48
12.915
14.276
15.57
16.806
17.992
19.135
20.244
21.327
22.39
23.44
24.484
25.528
26.577
27.635
28.707
29.796
30.904
32.035
33.189
34.369
35.575
36.809
38.07
39.36
40.677
42.021
43.391
44.785
46.199
47.633
49.082
50.544
52.014
53.49
54.966
56.44
57.908
59.365
60.809
62.235
63.642
65.026
66.385
67.718
69.022
70.297
71.544
72.76
73.948
75.108
76.24
77.346
78.429
79.489
80.53
81.552
82.56
83.555
84.541
85.52
86.496
87.473
88.454
89.443
90.442
91.457
92.49
93.545
94.625
95.733
96.87
98.04
99.242
100.479
101.751
103.056
104.393
105.762
107.159
108.581
110.025
111.485
112.957
114.435
115.913
117.385
118.844
120.283
121.696
123.075
124.412
125.701
126.933
128.101
129.196
130.213
131.142
131.977
132.711
133.338
133.852
134.249
134.522
134.668
134.684
134.566
134.314
133.926
133.402
132.743
131.952
131.032
129.987
128.823
127.547
126.165
124.686
123.119
121.473
119.758
117.982
116.158
114.296
112.409
110.507
108.604
106.712
104.842
103.007
101.218
99.485
97.818
96.226
94.716
93.299
91.979
90.764
89.66
88.672
87.803
87.057
86.435
85.936
85.557
85.295
85.143
85.096
85.145
85.279
85.49
85.768
86.105
86.491
86.915
87.365
87.828
88.293
88.748
89.178
89.57
89.909
90.184
90.389
90.513
90.551
90.495
90.337
90.07
89.689
89.182
88.539
87.749
86.789
85.649
84.329
82.827
81.158
79.336
77.37
75.282
73.106
70.855
68.548
66.194
63.783
61.334
58.87
56.415
54.021
51.727
49.557
47.542
45.682
43.938
42.273
40.609
38.827
36.869
34.684
32.206
29.499
26.651
23.772
21.087
18.765
16.876
15.494
14.67
14.213
13.839
13.211
11.778
9.138
5.036
-0.705
-8.013
-16.309
-24.663
-32.144
-37.553
-39.65
-37.265
-29.25
-14.995
5.129
30.046
58.754
90.015
122.023
152.535
178.778
198.171
209.215
211.143
202.941
184.145
155.68
119.114
76.612
29.052
-24.466
-83.191
-142.888
-195.304
-231.667
-247.812
-245.875
-233.135
-216.57
-199.94
-183.857
-166.757
-148.479
-130.158
-112.882
-98.011
-86.148
-76.936
-70.122
-65.107
-60.552
-55.688
-50.333
-44.409
-38.136
-31.772
-25.217
-18.463
-12.079
-6.42
-1.563
2.424
5.752
8.627
11.023
12.96
14.672
16.335
18.054
19.919
21.877
23.878
25.948
28.087
30.257
32.409
34.482
36.422
38.202
39.795
41.158
42.245
43.021
43.468
43.578
43.358
42.815
41.957
40.798
39.364
37.675
35.751
33.614
31.28
28.773
26.117
23.338
20.461
17.513
14.512
11.479
8.432
5.386
2.356
-0.647
-3.612
-6.527
-9.381
-12.16
-14.853
-17.448
-19.936
-22.309
-24.556
-26.673
-28.654
-30.496
-32.196
-33.753
-35.165
-36.43
-37.548
-38.52
-39.347
-40.031
-40.573
-40.976
-41.245
-41.383
-41.395
-41.287
-41.062
-40.725
-40.283
-39.741
-39.105
-38.382
-37.576
-36.696
-35.747
-34.738
-33.674
-32.565
-31.417
-30.238
-29.035
-27.816
-26.588
-25.36
-24.139
-22.934
-21.751
-20.599
-19.488
-18.424
-17.418
-16.477
-15.611
-14.828
-14.138
-13.549
-13.071
-12.711
-12.48
-12.384
-12.434
-12.636
-12.999
-13.529
-14.233
-15.118
-16.188
-17.448
-18.903
-20.555
-22.407
-24.461
-26.717
-29.175
-31.835
-34.695
-37.752
-41.001
-44.44
-48.062
-51.862
-55.831
-59.961
-64.245
-68.672
-73.232
-77.913
-82.704
-87.593
-92.566
-97.61
-102.712
-107.857
-113.031
-118.22
-123.41
-128.586
-133.736
-138.846
-143.902
-148.892
-153.804
-158.626
-163.348
-167.96
-172.451
-176.812
-181.036
-185.115
-189.041
-192.809
-196.411
-199.843
-203.099
-206.176
-209.071
-211.779
-214.3
-216.63
-218.77
-220.717
-222.471
-224.033
-225.401
-226.576
-227.56
-228.351
-228.952
-229.363
-229.586
-229.621
-229.469
-229.132
-228.609
-227.901
-227.007
-225.927
-224.661
-223.208
-221.568
-219.74
-217.725
-215.522
-213.134
-210.561
-207.806
-204.868
-201.751
-198.455
-194.984
-191.34
-187.527
-183.548
-179.408
-175.115
-170.675
-166.097
-161.388
-156.559
-151.618
-146.574
-141.44
-136.226
-130.943
-125.603
-120.222
-114.813
-109.393
-103.978
-98.588
-93.239
-87.95
-82.742
-77.63
-72.63
-67.758
-63.026
-58.447
-54.034
-49.8
-45.755
-41.914
-38.291
-34.899
-31.751
-28.853
-26.208
-23.815
-21.674
-19.78
-18.129
-16.712
-15.521
-14.558
-13.826
-13.338
-13.098
-13.092
-13.302
-13.702
-14.26
-14.948
-15.736
-16.579
-17.443
-18.306
-19.161
-20.021
-20.889
-21.74
-22.528
-23.189
-23.674
-23.973
-24.073
-23.965
-23.655
-23.143
-22.473
-21.729
-20.979
-20.262
-19.582
-18.881
-18.127
-17.367
-16.609
-15.817
-14.877
-13.539
-11.607
-8.992
-5.609
-1.367
3.671
9.33
15.228
20.69
25.092
27.963
29.043
28.372
26.444
24.084
22.319
22.503
26.089
34.501
48.877
69.77
96.367
126.778
159.279
192.281
225.799
260.484
294.607
323.974
341.742
341.385
320.769
283.054
234.614
180.051
122.025
62.071
2.707
-47.578
-79.949
-90.692
-80.51
-57.392
-31.74
-8.846
8.768
21.343
31.78
40.756
47.332
50.945
50.609
46.203
39.433
32.132
25.284
19.491
14.884
11.119
8.22
6.315
4.799
3.073
0.905
-1.898
-5.217
-8.719
-12.344
-16.111
-19.802
-23.281
-26.478
-29.283
-31.735
-33.903
-35.774
-37.335
-38.602
-39.569
-40.248
-40.678
-40.879
-40.894
-40.777
-40.555
-40.248
-39.866
-39.406
-38.869
-38.254
-37.554
-36.757
-35.856
-34.858
-33.773
-32.613
-31.38
-30.073
-28.686
-27.214
-25.658
-24.014
-22.28
-20.455
-18.541
-16.542
-14.467
-12.325
-10.123
-7.864
-5.554
-3.195
-0.793
1.648
4.123
6.63
9.162
11.712
14.273
16.837
19.395
21.941
24.467
26.965
29.427
31.847
34.218
36.534
38.788
40.973
43.084
45.114
47.057
48.906
50.657
52.302
53.838
55.26
56.563
57.746
58.805
59.738
60.544
61.221
61.768
62.187
62.476
62.637
62.672
62.583
62.374
62.05
61.614
61.072
60.43
59.693
58.869
57.965
56.986
55.941
54.836
53.681
52.482
51.249
49.989
48.711
47.424
46.136
44.855
43.59
42.349
41.138
39.966
38.84
37.766
36.751
35.802
34.922
34.119
33.397
32.759
32.21
31.753
31.389
31.122
30.953
30.882
30.911
31.04
31.268
31.596
32.021
32.543
33.161
33.871
34.673
35.563
36.538
37.595
38.732
39.945
41.229
42.582
44
45.478
47.013
48.6
50.235
51.915
53.634
55.39
57.176
58.991
60.829
62.687
64.563
66.452
68.351
70.259
72.171
74.085
76
77.913
79.821
81.724
83.618
85.504
87.379
89.243
91.094
92.931
94.754
96.562
98.355
100.132
101.895
103.643
105.377
107.099
108.811
110.514
112.211
113.904
115.596
117.291
118.99
120.698
122.418
124.153
125.906
127.68
129.479
131.305
133.161
135.05
136.973
138.933
140.931
142.968
145.047
147.167
149.329
151.534
153.782
156.07
158.399
160.766
163.168
165.6
168.058
170.534
173.021
175.51
177.993
180.458
182.893
185.285
187.621
189.886
192.065
194.142
196.1
197.922
199.592
201.093
202.408
203.52
204.41
205.061
205.459
205.587
205.429
204.971
204.196
203.091
201.644
199.844
197.681
195.145
192.229
188.927
185.242
181.176
176.735
171.925
166.755
161.234
155.379
149.202
142.719
135.941
128.884
121.564
114.003
106.227
98.263
90.136
81.872
73.496
65.036
56.522
47.981
39.447
30.952
22.538
14.254
6.154
-1.708
-9.286
-16.533
-23.42
-29.933
-36.058
-41.797
-47.141
-52.061
-56.558
-60.644
-64.351
-67.732
-70.823
-73.627
-76.189
-78.6
-80.888
-83.047
-84.925
-86.199
-86.695
-86.387
-85.287
-83.433
-80.86
-77.65
-74.229
-71.4
-69.725
-69.353
-70.088
-71.507
-73.268
-74.919
-75.593
-73.763
-67.805
-56.757
-40.377
-19.465
4.455
29.889
55.62
81.486
107.611
132.553
152.386
160.277
149.977
119.489
71.953
13.776
-50.055
-115.912
-181.442
-242.19
-288.648
-314.769
-318.573
-303.268
-279.615
-254.951
-232.645
-214.409
-197.59
-180.86
-165.42
-152.317
-143.149
-138.871
-138.53
-140.162
-142.14
-143.562
-143.971
-143.354
-141.671
-138.526
-134.098
-129.251
-124.628
-120.63
-117.436
-114.829
-112.687
-111.135
-110.048
-109.109
-108.086
-106.757
-105.038
-103.035
-100.797
-98.31
-95.604
-92.719
-89.699
-86.625
-83.545
-80.481
-77.476
-74.575
-71.835
-69.311
-67.034
-65.023
-63.287
-61.822
-60.625
-59.685
-58.986
-58.518
-58.275
-58.245
-58.421
-58.792
-59.343
-60.06
-60.921
-61.898
-62.966
-64.099
-65.274
-66.468
-67.655
-68.812
-69.913
-70.939
-71.87
-72.684
-73.356
-73.856
-74.149
-74.21
-74.021
-73.571
-72.849
-71.852
-70.581
-69.055
-67.31
-65.381
-63.286
-61.03
-58.602
-55.996
-53.209
-50.243
-47.099
-43.756
-40.19
-36.387
-32.344
-28.058
-23.508
-18.643
-13.38
-7.656
-1.449
5.224
12.315
19.777
27.549
35.553
43.681
51.786
59.728
67.4
74.719
81.599
87.936
93.581
98.354
102.113
104.765
106.263
106.592
105.739
103.724
100.607
96.503
91.575
85.961
79.761
73.051
65.905
58.423
50.739
43.006
35.342
27.833
20.549
13.544
6.876
0.575
-5.367
-11.003
-16.417
-21.659
-26.75
-31.688
-36.47
-41.103
-45.607
-50
-54.278
-58.431
-62.451
-66.332
-70.074
-73.663
-77.067
-80.232
-83.103
-85.641
-87.825
-89.646
-91.1
-92.185
-92.902
-93.262
-93.29
-93.01
-92.439
-91.597
-90.5
-89.172
-87.643
-85.949
-84.125
-82.203
-80.214
-78.189
-76.157
-74.146
-72.181
-70.283
-68.469
-66.76
-65.175
-63.733
-62.453
-61.35
-60.44
-59.736
-59.248
-58.985
-58.954
-59.156
-59.591
-60.259
-61.154
-62.271
-63.603
-65.138
-66.865
-68.772
-70.842
-73.06
-75.406
-77.862
-80.405
-83.016
-85.672
-88.352
-91.032
-93.69
-96.306
-98.859
-101.328
-103.693
-105.935
-108.035
-109.975
-111.739
-113.312
-114.679
-115.827
-116.745
-117.426
-117.862
-118.048
-117.98
-117.657
-117.077
-116.242
-115.154
-113.815
-112.232
-110.41
-108.358
-106.086
-103.607
-100.933
-98.078
-95.056
-91.883
-88.573
-85.142
-81.605
-77.975
-74.267
-70.498
-66.684
-62.839
-58.98
-55.124
-51.286
-47.484
-43.73
-40.038
-36.418
-32.878
-29.427
-26.071
-22.814
-19.659
-16.612
-13.677
-10.858
-8.159
-5.582
-3.125
-0.789
1.431
3.539
5.54
7.444
9.261
10.993
12.642
14.202
15.665
17.03
18.302
19.482
20.575
21.596
22.566
23.528
24.528
25.599
26.763
28.025
29.384
30.848
32.427
34.131
35.971
37.955
40.086
42.397
44.916
47.638
50.514
53.426
56.225
58.79
61.043
62.926
64.371
65.372
65.997
66.395
66.809
67.484
68.564
70.086
72.078
74.356
76.623
78.626
79.897
79.943
78.44
75.19
70.256
64.315
58.361
53.26
50.194
50.456
55.23
65.745
82.725
105.785
133.873
165.998
200.654
235.786
269.096
297.768
319.014
331.104
332.909
323.138
301.913
271.076
232.722
189.191
141.558
89.195
33.362
-20.898
-65.563
-93.057
-99.916
-88.82
-68.139
-45.9
-27.172
-14.059
-4.562
3.263
9.553
14.072
15.967
14.991
12.265
9.329
7.19
6.297
6.697
8.074
10.148
12.706
15.329
17.547
19.145
20.061
20.353
20.25
19.922
19.498
19.154
19.007
19.11
19.493
20.149
21.056
22.209
23.602
25.217
27.048
29.082
31.298
33.671
36.15
38.678
41.195
43.639
45.972
48.172
50.216
52.091
53.787
55.296
56.618
57.757
58.709
59.469
60.031
60.392
60.558
60.538
60.341
59.981
59.468
58.813
58.028
57.123
56.108
54.991
53.779
52.48
51.102
49.659
48.161
46.624
45.06
43.483
41.907
40.348
38.816
37.325
35.886
34.507
33.2
31.973
30.834
29.793
28.856
28.031
27.323
26.74
26.283
25.958
25.766
25.707
25.781
25.986
26.318
26.774
27.349
28.036
28.83
29.722
30.704
31.765
32.897
34.087
35.323
36.593
37.884
39.183
40.475
41.748
42.989
44.184
45.321
46.388
47.372
48.261
49.044
49.71
50.248
50.648
50.9
50.997
50.93
50.693
50.279
49.686
48.908
47.944
46.792
45.452
43.925
42.212
40.318
38.246
36.002
33.593
31.027
28.312
25.459
22.478
19.381
16.179
12.887
9.516
6.08
2.593
-0.93
-4.476
-8.03
-11.577
-15.103
-18.594
-22.035
-25.413
-28.714
-31.926
-35.037
-38.035
-40.908
-43.648
-46.244
-48.689
-50.975
-53.095
-55.044
-56.819
-58.415
-59.831
-61.067
-62.123
-63.002
-63.704
-64.235
-64.599
-64.8
-64.846
-64.743
-64.499
-64.122
-63.621
-63.004
-62.282
-61.464
-60.561
-59.582
-58.537
-57.436
-56.289
-55.107
-53.897
-52.67
-51.435
-50.201
-48.975
-47.765
-46.579
-45.423
-44.303
-43.222
-42.186
-41.197
-40.258
-39.37
-38.534
-37.751
-37.021
-36.341
-35.711
-35.128
-34.588
-34.088
-33.621
-33.184
-32.769
-32.372
-31.986
-31.604
-31.221
-30.831
-30.426
-30
-29.546
-29.057
-28.525
-27.944
-27.305
-26.601
-25.826
-24.973
-24.036
-23.012
-21.894
-20.678
-19.359
-17.934
-16.399
-14.749
-12.982
-11.094
-9.085
-6.953
-4.699
-2.328
0.156
2.748
5.443
8.236
11.12
14.09
17.141
20.272
23.478
26.756
30.097
33.495
36.939
40.421
43.93
47.455
50.984
54.507
58.013
61.494
64.943
68.346
71.689
74.952
78.106
81.128
84.002
86.716
89.257
91.625
93.818
95.849
97.747
99.534
101.235
102.87
104.449
105.986
107.494
108.987
110.489
112.009
113.535
115.049
116.526
117.925
119.223
120.358
121.218
121.694
121.656
120.976
119.585
117.378
114.244
110.174
105.209
99.49
93.327
86.981
80.653
74.66
69.221
64.348
59.984
55.801
51.254
46.05
39.962
32.665
24.192
15.025
5.971
-1.631
-6.266
-6.844
-2.187
9.046
27.594
53.583
86.362
124.34
165.767
209.027
251.722
290.779
323.443
347.174
360.142
361.62
350.841
327.157
292.161
248.648
198.727
145.645
91.071
35.895
-14.761
-56.604
-86.177
-100.444
-102.04
-94.069
-79.017
-60.315
-38.838
-15.799
7.085
29.253
49.028
64.859
76.055
81.865
82.627
79.458
73.13
64.3
53.855
42.806
32.137
22.846
15.446
9.877
6.026
3.743
2.617
2.093
1.714
0.997
-0.354
-2.348
-4.97
-8.143
-11.655
-15.256
-18.783
-22.121
-25.231
-28.164
-30.954
-33.651
-36.339
-39.105
-42.019
-45.105
-48.351
-51.726
-55.211
-58.802
-62.496
-66.287
-70.16
-74.106
-78.123
-82.217
-86.391
-90.639
-94.953
-99.323
-103.743
-108.211
-112.725
-117.279
-121.868
-126.486
-131.127
-135.785
-140.456
-145.132
-149.805
-154.466
-159.106
-163.714
-168.281
-172.796
-177.246
-181.62
-185.909
-190.1
-194.186
-198.155
-201.997
-205.703
-209.264
-212.667
-215.904
-218.963
-221.835
-224.509
-226.976
-229.229
-231.258
-233.058
-234.621
-235.942
-237.018
-237.842
-238.413
-238.727
-238.783
-238.579
-238.117
-237.397
-236.421
-235.194
-233.72
-232.004
-230.054
-227.878
-225.484
-222.882
-220.084
-217.1
-213.944
-210.63
-207.172
-203.587
-199.891
-196.101
-192.237
-188.316
-184.358
-180.381
-176.406
-172.452
-168.539
-164.687
-160.914
-157.242
-153.688
-150.271
-147.011
-143.923
-141.024
-138.33
-135.856
-133.615
-131.618
-129.877
-128.399
-127.194
-126.266
-125.621
-125.26
-125.184
-125.392
-125.881
-126.646
-127.681
-128.977
-130.525
-132.312
-134.326
-136.552
-138.974
-141.575
-144.337
-147.241
-150.267
-153.392
-156.597
-159.857
-163.152
-166.458
-169.751
-173.01
-176.212
-179.335
-182.357
-185.257
-188.016
-190.613
-193.032
-195.255
-197.266
-199.052
-200.599
-201.896
-202.935
-203.706
-204.205
-204.425
-204.364
-204.021
-203.395
-202.487
-201.301
-199.841
-198.111
-196.12
-193.875
-191.384
-188.658
-185.709
-182.546
-179.181
-175.627
-171.896
-168
-163.953
-159.768
-155.456
-151.032
-146.508
-141.897
-137.211
-132.461
-127.659
-122.814
-117.935
-113.032
-108.11
-103.177
-98.239
-93.302
-88.371
-83.451
-78.545
-73.656
-68.787
-63.94
-59.116
-54.316
-49.539
-44.786
-40.056
-35.351
-30.672
-26.02
-21.397
-16.805
-12.245
-7.718
-3.227
1.228
5.645
10.022
14.358
18.648
22.888
27.072
31.193
35.243
39.212
43.092
46.876
50.556
54.126
57.579
60.909
64.114
67.188
70.127
72.928
75.586
78.093
80.446
82.642
84.678
86.555
88.268
89.813
91.193
92.409
93.46
94.344
95.044
95.546
95.844
95.932
95.812
95.492
94.98
94.293
93.474
92.571
91.637
90.726
89.865
89.071
88.368
87.78
87.347
87.108
87.082
87.286
87.743
88.457
89.416
90.572
91.803
92.974
93.92
94.443
94.447
93.939
93.005
91.853
90.681
89.602
88.795
88.54
88.894
89.624
90.225
89.862
87.815
83.773
77.48
68.614
57.227
43.955
30.075
17.654
8.855
5.274
8.423
19.869
40.645
71.043
110.324
156.46
206.9
259.169
310.264
356.792
395.623
423.81
439.415
441.733
430.292
405.909
370.726
326.663
276.68
222.948
166.979
113.499
66.859
31.524
11.215
3.535
5.524
14.115
25.36
38.976
53.984
68.236
81.128
91.291
97.941
101.693
102.903
102.152
100.599
99.253
98.723
99.359
101.091
103.531
106.376
109.381
112.175
114.411
115.909
116.589
116.522
115.918
114.955
113.798
112.617
111.515
110.55
109.751
109.125
108.681
108.434
108.382
108.516
108.834
109.332
110.011
110.866
111.858
112.943
114.075
115.209
116.326
117.421
118.489
119.531
120.553
121.563
122.581
123.631
124.726
125.879
127.102
128.406
129.814
131.349
133.031
134.883
136.924
139.172
141.643
144.351
147.303
150.508
153.969
157.686
161.664
165.902
170.402
175.162
180.18
185.453
190.974
196.737
202.729
208.939
215.352
221.951
228.717
235.629
242.667
249.808
257.028
264.302
271.603
278.905
286.18
293.399
300.533
307.553
314.428
321.13
327.629
333.896
339.905
345.63
351.044
356.124
360.846
365.189
369.132
372.659
375.751
378.395
380.577
382.287
383.517
384.261
384.515
384.279
383.554
382.343
380.652
378.49
375.866
372.795
369.29
365.368
361.049
356.352
351.301
345.92
340.233
334.268
328.05
321.61
314.975
308.176
301.242
294.203
287.089
279.931
272.757
265.597
258.479
251.432
244.481
237.652
230.971
224.459
218.139
212.03
206.152
200.519
195.148
190.049
185.234
180.711
176.485
172.561
168.941
165.624
162.607
159.887
157.458
155.31
153.435
151.82
150.453
149.319
148.402
147.685
147.151
146.78
146.552
146.446
146.443
146.52
146.656
146.829
147.017
147.198
147.352
147.457
147.493
147.443
147.287
147.009
146.593
146.024
145.289
144.376
143.274
141.973
140.467
138.749
136.815
134.663
132.29
129.697
126.885
123.856
120.615
117.164
113.511
109.662
105.625
101.409
97.025
92.482
87.794
82.972
78.029
72.979
67.835
62.609
57.314
51.963
46.568
41.141
35.695
30.241
24.791
19.356
13.945
8.569
3.235
-2.051
-7.283
-12.456
-17.567
-22.612
-27.589
-32.496
-37.331
-42.093
-46.781
-51.395
-55.938
-60.411
-64.817
-69.163
-73.453
-77.695
-81.896
-86.064
-90.205
-94.323
-98.425
-102.513
-106.591
-110.66
-114.724
-118.786
-122.85
-126.923
-131.01
-135.115
-139.24
-143.383
-147.542
-151.713
-155.891
-160.065
-164.227
-168.368
-172.489
-176.599
-180.707
-184.818
-188.926
-193.018
-197.081
-201.094
-205.029
-208.849
-212.514
-215.988
-219.25
-222.301
-225.151
-227.803
-230.252
-232.466
-234.406
-236.05
-237.39
-238.423
-239.149
-239.584
-239.761
-239.761
-239.704
-239.694
-239.822
-240.13
-240.587
-241.187
-241.959
-242.893
-243.959
-245.041
-245.852
-246.165
-245.954
-245.165
-243.751
-241.801
-239.296
-236.44
-233.934
-232.422
-232.225
-233.482
-235.889
-238.71
-241.479
-243.436
-243.024
-238.703
-229.125
-213.35
-191.583
-164.802
-133.721
-99.607
-64.821
-32.031
-4.366
15.113
24.646
23.109
9.2
-17.386
-55.606
-103.657
-158.547
-216.618
-274.679
-329.245
-376.432
-413.442
-438.595
-451.729
-453.753
-445.399
-428.454
-404.367
-375.265
-346.313
-320.913
-302.559
-294.988
-296.264
-304.088
-315.929
-327.301
-337.483
-346.68
-354.244
-360.261
-363.757
-363.942
-361.295
-356.816
-351.779
-346.99
-342.751
-339.267
-336.598
-334.757
-333.656
-332.919
-332.107
-330.987
-329.454
-327.498
-325.186
-322.531
-319.538
-316.273
-312.811
-309.207
-305.505
-301.723
-297.868
-293.977
-290.101
-286.282
-282.559
-278.956
-275.487
-272.162
-268.985
-265.961
-263.088
-260.371
-257.815
-255.424
-253.201
-251.146
-249.254
-247.516
-245.917
-244.44
-243.066
-241.778
-240.561
-239.403
-238.29
-237.212
-236.155
-235.107
-234.054
-232.978
-231.863
-230.692
-229.449
-228.118
-226.685
-225.138
-223.467
-221.662
-219.719
-217.63
-215.391
-213
-210.454
-207.755
-204.902
-201.901
-198.755
-195.472
-192.061
-188.533
-184.9
-181.176
-177.376
-173.518
-169.618
-165.694
-161.764
-157.848
-153.965
-150.134
-146.376
-142.71
-139.156
-135.733
-132.459
-129.352
-126.426
-123.697
-121.176
-118.873
-116.796
-114.951
-113.342
-111.971
-110.837
-109.939
-109.272
-108.831
-108.607
-108.589
-108.763
-109.116
-109.629
-110.283
-111.059
-111.935
-112.888
-113.895
-114.933
-115.976
-117
-117.979
-118.887
-119.7
-120.391
-120.937
-121.313
-121.499
-121.475
-121.223
-120.727
-119.976
-118.96
-117.672
-116.108
-114.264
-112.139
-109.735
-107.053
-104.098
-100.876
-97.395
-93.668
-89.711
-85.542
-81.186
-76.667
-72.013
-67.252
-62.412
-57.521
-52.607
-47.696
-42.811
-37.979
-33.23
-28.596
-24.115
-19.818
-15.732
-11.873
-8.251
-4.866
-1.706
1.242
4
6.582
8.991
11.219
13.246
15.05
16.607
17.913
18.979
19.818
20.438
20.842
21.029
20.978
20.657
20.022
19.019
17.618
15.82
13.661
11.217
8.584
5.878
3.196
0.607
-1.823
-4.036
-5.972
-7.57
-8.75
-9.42
-9.472
-8.774
-7.231
-4.781
-1.417
2.813
7.826
13.496
19.717
26.398
33.459
40.835
48.462
56.278
64.214
72.191
80.106
87.831
95.256
102.289
108.879
115.014
120.713
126.026
130.995
135.651
140.013
144.083
147.854
151.315
154.452
157.246
159.698
161.829
163.656
165.198
166.462
167.441
168.118
168.464
168.455
168.073
167.311
166.172
164.668
162.811
160.623
158.134
155.375
152.375
149.158
145.743
142.149
138.401
134.533
130.582
126.588
122.585
118.606
114.686
110.867
107.204
103.752
100.558
97.651
95.053
92.792
90.899
89.413
88.373
87.769
87.57
87.728
88.178
88.889
89.86
91.036
92.312
93.625
94.94
96.372
98.203
100.541
103.32
106.443
109.767
113.194
116.73
120.03
122.327
123.152
122.352
120.09
117.01
113.662
110.265
107.556
106.958
109.704
116.871
128.978
145.455
165.738
189.655
216.275
243.688
269.632
291.392
306.653
314.202
312.703
300.646
277.416
244.161
203.778
159.002
112.099
63.963
14.125
-33.837
-74.032
-101.698
-111.528
-104.198
-86.374
-63.575
-42.121
-25.698
-12.824
-2.606
5.612
12.351
16.675
18.409
18.511
18.243
18.593
19.967
22.344
25.432
28.971
32.779
36.481
39.612
41.978
43.555
44.427
44.841
44.95
44.847
44.706
44.658
44.777
45.128
45.708
46.473
47.414
48.519
49.759
51.124
52.579
54.073
55.566
57.01
58.35
59.541
60.527
61.271
61.753
61.958
61.879
61.521
60.883
59.972
58.801
57.379
55.716
53.824
51.716
49.408
46.92
44.274
41.492
38.598
35.611
32.548
29.428
26.269
23.088
19.9
16.721
13.566
10.453
7.402
4.429
1.553
-1.21
-3.845
-6.338
-8.675
-10.845
-12.838
-14.646
-16.263
-17.68
-18.893
-19.898
-20.692
-21.273
-21.642
-21.799
-21.748
-21.491
-21.034
-20.384
-19.548
-18.536
-17.355
-16.016
-14.531
-12.91
-11.166
-9.311
-7.358
-5.322
-3.215
-1.05
1.158
3.396
5.653
7.915
10.171
12.41
14.623
16.8
18.934
21.015
23.039
24.999
26.892
28.714
30.462
32.136
33.735
35.259
36.712
38.095
39.412
40.668
41.867
43.015
44.119
45.185
46.22
47.233
48.231
49.223
50.215
51.217
52.236
53.279
54.353
55.465
56.621
57.827
59.087
60.406
61.787
63.233
64.746
66.326
67.974
69.688
71.467
73.308
75.208
77.162
79.167
81.215
83.303
85.423
87.568
89.731
91.906
94.083
96.255
98.415
100.555
102.667
104.746
106.784
108.777
110.718
112.602
114.427
116.187
117.88
119.504
121.058
122.542
123.956
125.302
126.584
127.804
128.968
130.079
131.145
132.17
133.162
134.127
135.072
136.005
136.934
137.866
138.811
139.775
140.768
141.797
142.868
143.987
145.16
146.391
147.684
149.04
150.464
151.958
153.521
155.155
156.86
158.635
160.477
162.382
164.345
166.359
168.415
170.506
172.623
174.757
176.896
179.034
181.159
183.262
185.333
187.36
189.332
191.235
193.06
194.791
196.419
197.93
199.315
200.566
201.678
202.645
203.465
204.134
204.651
205.014
205.224
205.28
205.181
204.928
204.523
203.971
203.278
202.456
201.512
200.456
199.297
198.048
196.716
195.306
193.819
192.249
190.591
188.849
187.027
185.134
183.19
181.224
179.265
177.352
175.516
173.778
172.152
170.636
169.232
167.939
166.77
165.758
164.933
164.337
164.018
163.995
164.246
164.714
165.286
165.828
166.244
166.418
166.234
165.687
164.849
163.896
163.112
162.68
162.659
163.149
164.181
165.548
166.918
167.727
167.185
164.79
160.274
153.341
144.02
132.862
120.741
109.01
99.461
93.655
92.94
98.692
111.84
132.532
160.144
193.429
229.97
266.408
300.38
329.704
352.888
370.72
381.413
381.362
368.399
339.315
294.871
239.401
175.73
109.008
44.976
-10.16
-48.584
-66.975
-67.48
-56.601
-42.337
-29.436
-18.72
-8.575
1.979
12.468
21.564
27.543
30.05
29.678
27.16
23.737
20.473
17.849
16.129
15.245
14.845
14.659
14.454
13.908
12.722
10.732
7.904
4.357
0.315
-4.01
-8.448
-12.888
-17.245
-21.463
-25.512
-29.363
-33.012
-36.476
-39.763
-42.875
-45.813
-48.575
-51.17
-53.642
-56.037
-58.409
-60.811
-63.268
-65.791
-68.389
-71.062
-73.808
-76.624
-79.493
-82.395
-85.321
-88.268
-91.232
-94.21
-97.188
-100.149
-103.078
-105.96
-108.78
-111.528
-114.19
-116.758
-119.225
-121.587
-123.84
-125.985
-128.019
-129.935
-131.73
-133.399
-134.936
-136.337
-137.6
-138.719
-139.692
-140.52
-141.202
-141.74
-142.136
-142.391
-142.506
-142.486
-142.332
-142.045
-141.63
-141.089
-140.424
-139.641
-138.743
-137.735
-136.621
-135.408
-134.101
-132.706
-131.228
-129.673
-128.047
-126.356
-124.606
-122.803
-120.954
-119.066
-117.145
-115.197
-113.23
-111.25
-109.263
-107.275
-105.29
-103.313
-101.35
-99.403
-97.479
-95.579
-93.709
-91.871
-90.069
-88.306
-86.586
-84.909
-83.279
-81.697
-80.164
-78.682
-77.251
-75.871
-74.542
-73.264
-72.037
-70.858
-69.726
-68.64
-67.597
-66.594
-65.629
-64.699
-63.801
-62.932
-62.088
-61.267
-60.467
-59.683
-58.914
-58.158
-57.411
-56.673
-55.94
-55.211
-54.485
-53.761
-53.037
-52.313
-51.588
-50.863
-50.139
-49.415
-48.694
-47.976
-47.265
-46.563
-45.872
-45.197
-44.541
-43.908
-43.304
-42.731
-42.196
-41.702
-41.254
-40.856
-40.512
-40.225
-39.999
-39.837
-39.74
-39.712
-39.751
-39.861
-40.04
-40.289
-40.605
-40.988
-41.435
-41.944
-42.51
-43.131
-43.801
-44.517
-45.27
-46.057
-46.869
-47.698
-48.536
-49.374
-50.204
-51.015
-51.798
-52.545
-53.246
-53.894
-54.482
-55.002
-55.448
-55.817
-56.102
-56.302
-56.413
-56.434
-56.365
-56.207
-55.961
-55.631
-55.222
-54.74
-54.192
-53.585
-52.929
-52.231
-51.503
-50.753
-49.995
-49.238
-48.497
-47.786
-47.12
-46.515
-45.987
-45.551
-45.222
-45.01
-44.926
-44.976
-45.166
-45.502
-45.989
-46.631
-47.433
-48.401
-49.543
-50.867
-52.377
-54.073
-55.951
-58.012
-60.254
-62.679
-65.285
-68.069
-71.024
-74.141
-77.41
-80.82
-84.35
-87.972
-91.645
-95.32
-98.953
-102.517
-105.975
-109.293
-112.423
-115.308
-117.912
-120.232
-122.278
-124.078
-125.666
-127.049
-128.263
-129.388
-130.445
-131.419
-132.231
-132.682
-132.601
-131.922
-130.617
-128.698
-126.385
-123.993
-121.899
-120.693
-120.9
-122.839
-126.689
-132.365
-139.22
-146.305
-152.722
-157.287
-158.788
-156.182
-148.448
-134.966
-116.082
-92.685
-65.528
-35.821
-5.284
24.109
49.888
69.604
81.639
84.806
77.611
59.737
32.578
-2.017
-41.923
-86.59
-137.027
-191.974
-246.251
-291.002
-317.493
-322.581
-309.513
-285.902
-259.777
-234.562
-210.242
-187.123
-165.015
-145.956
-133.217
-125.736
-122.009
-120.025
-116.484
-111.678
-106.5
-101.143
-96.614
-92.658
-88.89
-85.798
-83.795
-83.344
-84.745
-87.873
-92.468
-98.279
-105.043
-112.498
-120.359
-128.383
-136.404
-144.333
-152.146
-159.8
-167.218
-174.304
-180.934
-187.022
-192.527
-197.432
-201.744
-205.505
-208.784
-211.67
-214.29
-216.732
-219.041
-221.243
-223.332
-225.291
-227.124
-228.84
-230.428
-231.885
-233.222
-234.424
-235.491
-236.448
-237.286
-237.959
-238.514
-239.004
-239.297
-239.37
-239.291
-238.8
-238.257
-238.171
-237.846
-237.036
-234.557
-228.331
-219.039
-208.233
-198.833
-195.216
-198.529
-206.558
-214.675
-217.37
-211.408
-198.237
-182.712
-169.253
-161.107
-158.093
-156.99
-155.693
-152.83
-148.184
-143.049
-137.953
-132.892
-127.923
-122.833
-117.586
-112.376
-107.262
-102.229
-97.301
-92.48
-87.754
-83.117
-78.551
-74.024
-69.525
-65.066
-60.646
-56.259
-51.902
-47.569
-43.256
-38.961
-34.679
-30.404
-26.128
-21.849
-17.561
-13.26
-8.945
-4.612
-0.259
4.115
8.509
12.921
17.347
21.783
26.222
30.658
35.084
39.491
43.871
48.216
52.519
56.77
60.959
65.076
69.107
73.037
76.849
80.523
84.041
87.387
90.533
93.456
96.138
98.557
100.702
102.566
104.119
105.335
106.229
106.815
107.105
107.126
106.874
106.335
105.564
104.623
103.461
102.01
100.336
98.439
96.314
94.182
91.505
87.746
83.664
79.464
76.552
76.607
77.714
78.578
77.256
71.116
62.396
53.003
44.281
38.451
33.978
29.302
24.105
17.48
10.1
2.833
-4.318
-11.127
-17.512
-23.475
-28.731
-33.019
-36.197
-38.145
-38.791
-38.091
-36.011
-32.5
-27.531
-21.133
-13.377
-4.407
5.62
16.56
28.264
40.549
53.181
65.904
78.456
90.638
102.307
113.33
123.579
132.898
141.124
148.16
153.971
158.585
162.051
164.404
165.686
165.984
165.443
164.243
162.587
160.616
158.423
156.103
153.751
151.489
149.461
147.759
146.424
145.477
144.924
144.785
145.081
145.79
146.848
148.162
149.619
151.152
152.728
154.311
155.861
157.319
158.611
159.7
160.588
161.285
161.793
162.109
162.227
162.171
162.001
161.787
161.593
161.445
161.347
161.304
161.349
161.538
161.942
162.613
163.534
164.695
166.13
167.823
169.719
171.735
173.664
175.29
176.594
177.517
177.932
178.054
178.146
178.266
178.751
179.346
178.86
177.335
175.213
173.173
173.415
175.552
176.973
174.984
165.614
147.171
120.959
90.327
61.161
40.865
37.182
53.772
89.645
139.038
191.621
239.989
280.156
310.708
333.576
348.65
354.073
348.093
329.144
298.303
258.295
211.264
157.37
95.8
27.77
-41.373
-101.154
-141.279
-157.433
-152.208
-134.632
-114.43
-96.737
-82.499
-69.785
-56.683
-43.159
-30.464
-20.155
-12.58
-7.137
-2.736
2.082
7.927
14.806
22.659
31.118
39.784
48.342
56.274
62.973
68.077
71.45
73.109
73.233
72.009
69.594
66.216
62.174
57.754
53.173
48.571
44.013
39.546
35.26
31.259
27.633
24.465
21.803
19.673
18.076
16.959
16.239
15.802
15.514
15.257
14.932
14.413
13.7
12.96
12.2
11.331
10.355
9.051
7.766
7.625
8.363
8.929
7.617
1.224
-9.984
-22.702
-33.649
-38.206
-36.079
-31.584
-28.055
-29.099
-35.326
-43.497
-51.619
-58.323
-63.187
-67.514
-71.885
-76.246
-80.635
-84.85
-88.836
-92.765
-96.683
-100.549
-104.359
-108.107
-111.774
-115.334
-118.756
-121.998
-125.041
-127.892
-130.55
-133.007
-135.261
-137.308
-139.147
-140.781
-142.21
-143.429
-144.44
-145.242
-145.838
-146.23
-146.423
-146.421
-146.231
-145.86
-145.314
-144.601
-143.73
-142.708
-141.543
-140.246
-138.823
-137.285
-135.641
-133.9
-132.072
-130.167
-128.195
-126.165
-124.085
-121.964
-119.809
-117.626
-115.424
-113.206
-110.979
-108.748
-106.52
-104.299
-102.09
-99.899
-97.729
-95.585
-93.471
-91.389
-89.345
-87.34
-85.378
-83.461
-81.593
-79.777
-78.016
-76.312
-74.669
-73.088
-71.574
-70.127
-68.752
-67.449
-66.224
-65.077
-64.011
-63.03
-62.135
-61.33
-60.616
-59.995
-59.471
-59.043
-58.714
-58.483
-58.351
-58.316
-58.379
-58.536
-58.785
-59.123
-59.546
-60.048
-60.625
-61.27
-61.977
-62.737
-63.544
-64.387
-65.258
-66.145
-67.038
-67.924
-68.793
-69.632
-70.428
-71.168
-71.841
-72.432
-72.931
-73.326
-73.603
-73.751
-73.759
-73.616
-73.31
-72.834
-72.178
-71.335
-70.301
-69.073
-67.647
-66.024
-64.204
-62.189
-59.983
-57.59
-55.016
-52.27
-49.359
-46.294
-43.087
-39.754
-36.309
-32.77
-29.155
-25.486
-21.781
-18.062
-14.347
-10.655
-7.005
-3.414
0.101
3.524
6.836
10.017
13.049
15.909
18.582
21.052
23.309
25.344
27.154
28.736
30.091
31.226
32.141
32.836
33.301
33.524
33.503
33.246
32.769
32.091
31.239
30.246
29.15
27.996
26.822
25.651
24.496
23.354
22.234
21.157
20.167
19.324
18.67
18.233
18.038
18.103
18.434
19.029
19.843
20.8
21.837
22.902
23.976
25.091
26.255
27.436
28.645
29.926
31.424
33.409
36.119
39.693
44.236
49.828
56.381
63.677
71.282
78.461
84.484
88.781
91.11
91.601
90.909
90.066
90.268
93.035
100.031
112.797
132.31
158.796
191.526
229.069
269.97
312.392
353.813
391.345
422.234
444.247
456.253
457.686
447.652
425.83
393.105
351.924
306.086
258.496
210.878
164.191
118.756
77.513
44.447
22.573
16.299
27.293
53.892
93.473
138.268
178.484
208.07
223.98
228.557
228.854
229.708
233.213
239.264
245.033
248.852
250.646
250.887
251.07
252.275
254.872
258.78
263.277
267.619
271.484
274.838
277.8
280.448
282.668
284.379
285.704
286.928
288.288
289.873
291.66
293.563
295.553
297.648
299.827
302.014
304.123
306.071
307.802
309.294
310.513
311.424
312.003
312.222
312.067
311.539
310.643
309.386
307.784
305.839
303.555
300.938
297.995
294.738
291.184
287.347
283.242
278.887
274.3
269.499
264.504
259.329
253.989
248.495
242.86
237.098
231.226
225.259
219.214
213.107
206.951
200.762
194.553
188.336
182.121
175.915
169.724
163.557
157.417
151.311
145.243
139.216
133.232
127.294
121.403
115.558
109.761
104.009
98.301
92.633
87.004
81.409
75.848
70.315
64.809
59.326
53.865
48.423
42.999
37.592
32.201
26.828
21.474
16.142
10.834
5.557
0.315
-4.884
-10.033
-15.123
-20.145
-25.088
-29.943
-34.698
-39.343
-43.866
-48.256
-52.501
-56.59
-60.512
-64.255
-67.81
-71.165
-74.312
-77.241
-79.946
-82.418
-84.653
-86.646
-88.393
-89.894
-91.147
-92.155
-92.919
-93.445
-93.738
-93.807
-93.66
-93.308
-92.764
-92.041
-91.155
-90.121
-88.957
-87.679
-86.306
-84.858
-83.352
-81.808
-80.246
-78.684
-77.142
-75.638
-74.191
-72.817
-71.533
-70.355
-69.296
-68.37
-67.589
-66.963
-66.501
-66.209
-66.094
-66.159
-66.405
-66.833
-67.44
-68.222
-69.173
-70.286
-71.55
-72.956
-74.491
-76.142
-77.894
-79.733
-81.642
-83.604
-85.604
-87.621
-89.64
-91.642
-93.61
-95.527
-97.376
-99.141
-100.808
-102.363
-103.795
-105.091
-106.242
-107.238
-108.073
-108.739
-109.234
-109.554
-109.702
-109.678
-109.488
-109.139
-108.64
-108.001
-107.235
-106.354
-105.373
-104.308
-103.174
-101.989
-100.772
-99.541
-98.318
-97.125
-95.982
-94.911
-93.933
-93.069
-92.341
-91.766
-91.361
-91.141
-91.119
-91.308
-91.723
-92.374
-93.266
-94.407
-95.8
-97.448
-99.351
-101.505
-103.901
-106.529
-109.378
-112.434
-115.688
-119.126
-122.731
-126.491
-130.388
-134.412
-138.564
-142.832
-147.196
-151.632
-156.103
-160.571
-165.006
-169.362
-173.585
-177.639
-181.482
-185.087
-188.445
-191.527
-194.302
-196.732
-198.749
-200.293
-201.321
-201.806
-201.766
-201.259
-200.347
-199.139
-197.754
-196.276
-194.82
-193.393
-191.886
-190.178
-188.051
-185.297
-181.865
-177.751
-172.942
-167.695
-162.399
-157.425
-153.41
-150.878
-150.065
-151.125
-153.943
-157.813
-161.774
-164.894
-165.867
-163.376
-156.224
-143.19
-123.598
-97.842
-66.907
-31.74
6.227
44.997
82.196
114.935
140.458
157.145
163.988
159.561
143.646
117.811
83.912
44.657
1.095
-48.78
-104.618
-162.869
-216.059
-253.126
-267.902
-260.18
-235.283
-203.516
-171.922
-144
-120.592
-99.316
-79.788
-63.469
-51.981
-47.326
-49.834
-57.988
-69.942
-83.774
-97.7
-110.58
-121.45
-129.541
-134.605
-136.872
-136.914
-135.502
-133.516
-131.504
-129.795
-128.66
-128.166
-128.293
-128.947
-129.869
-130.706
-131.249
-131.423
-131.198
-130.631
-129.75
-128.542
-127.059
-125.384
-123.591
-121.735
-119.833
-117.855
-115.782
-113.613
-111.344
-108.983
-106.524
-103.946
-101.241
-98.41
-95.465
-92.422
-89.29
-86.07
-82.763
-79.369
-75.892
-72.337
-68.707
-65.001
-61.22
-57.365
-53.442
-49.46
-45.429
-41.353
-37.239
-33.09
-28.912
-24.712
-20.494
-16.264
-12.029
-7.798
-3.58
0.611
4.764
8.864
12.898
16.853
20.714
24.466
28.097
31.592
34.935
38.113
41.11
43.909
46.496
48.855
50.97
52.825
54.406
55.699
56.691
57.371
57.728
57.75
57.428
56.755
55.723
54.325
52.558
50.418
47.905
45.02
41.766
38.15
34.179
29.863
25.213
20.242
14.965
9.397
3.557
-2.538
-8.866
-15.405
-22.131
-29.02
-36.046
-43.181
-50.399
-57.672
-64.971
-72.27
-79.541
-86.757
-93.891
-100.917
-107.81
-114.545
-121.097
-127.446
-133.571
-139.453
-145.075
-150.424
-155.487
-160.257
-164.729
-168.897
-172.757
-176.311
-179.557
-182.5
-185.14
-187.483
-189.53
-191.293
-192.782
-194.011
-194.999
-195.765
-196.328
-196.713
-196.943
-197.04
-197.024
-196.913
-196.72
-196.464
-196.161
-195.832
-195.503
-195.189
-194.902
-194.652
-194.44
-194.26
-194.098
-193.923
-193.7
-193.407
-193.03
-192.562
-192.015
-191.392
-190.701
-189.952
-189.135
-188.241
-187.272
-186.219
-185.079
-183.872
-182.62
-181.375
-180.208
-179.157
-178.236
-177.444
-176.732
-176.048
-175.339
-174.526
-173.559
-172.397
-170.982
-169.264
-167.2
-164.713
-161.718
-158.108
-153.723
-148.436
-142.161
-134.842
-126.48
-117.103
-106.738
-95.434
-83.246
-70.214
-56.412
-41.927
-26.836
-11.251
4.688
20.818
36.903
52.695
68.001
82.659
96.547
109.578
121.651
132.665
142.552
151.249
158.722
164.974
169.994
173.794
176.431
177.993
178.633
178.541
177.865
176.714
175.188
173.358
171.315
169.167
166.988
164.847
162.799
160.879
159.138
157.63
156.37
155.353
154.534
153.827
153.19
152.614
152.097
151.649
151.281
150.996
150.818
150.778
150.89
151.139
151.481
151.837
152.136
152.362
152.508
152.569
152.585
152.612
152.762
153.305
154.469
156.246
158.618
161.53
164.716
168.015
171.139
173.353
174.049
173.057
170.354
166.312
161.771
157.274
153.599
152.322
154.937
162.67
176.439
196.137
220.941
250.389
283.506
318.181
352.078
382.35
406.029
421.376
427.049
421.905
406.397
381.879
350.097
311.771
266.09
213.722
157.236
104.106
64.885
44.426
44.248
60.648
84.329
111.408
138.166
160.073
177.018
185.933
186.073
181.624
175.063
170.025
168.427
168.403
168.854
168.799
167.858
167.081
166.819
166.832
166.788
166.064
164.434
162.062
159.118
155.847
152.477
149.141
145.944
142.951
140.169
137.583
135.186
132.966
130.902
128.986
127.22
125.61
124.167
122.875
121.693
120.56
119.411
118.205
116.923
115.56
114.116
112.592
110.992
109.326
107.613
105.863
104.076
102.246
100.367
98.438
96.468
94.468
92.451
90.424
88.394
86.368
84.353
82.352
80.367
78.398
76.44
74.493
72.559
70.641
68.744
66.869
65.021
63.201
61.413
59.661
57.944
56.264
54.619
53.009
51.434
49.893
48.387
46.916
45.48
44.081
42.72
41.398
40.118
38.879
37.685
36.535
35.432
34.375
33.366
32.406
31.495
30.635
29.825
29.066
28.359
27.701
27.093
26.534
26.02
25.55
25.121
24.731
24.376
24.054
23.762
23.496
23.254
23.03
22.822
22.623
22.43
22.236
22.035
21.821
21.588
21.329
21.036
20.705
20.326
19.894
19.402
18.844
18.212
17.502
16.708
15.826
14.85
13.777
12.606
11.333
9.959
8.482
6.903
5.223
3.445
1.57
-0.396
-2.451
-4.59
-6.807
-9.095
-11.449
-13.86
-16.32
-18.821
-21.354
-23.909
-26.476
-29.046
-31.608
-34.153
-36.669
-39.149
-41.58
-43.956
-46.265
-48.501
-50.655
-52.719
-54.689
-56.557
-58.32
-59.975
-61.517
-62.947
-64.262
-65.465
-66.554
-67.533
-68.403
-69.169
-69.832
-70.4
-70.875
-71.265
-71.576
-71.815
-71.989
-72.107
-72.175
-72.202
-72.195
-72.161
-72.109
-72.044
-71.972
-71.9
-71.834
-71.778
-71.739
-71.72
-71.725
-71.756
-71.816
-71.904
-72.023
-72.169
-72.34
-72.534
-72.748
-72.977
-73.22
-73.471
-73.726
-73.98
-74.228
-74.465
-74.683
-74.877
-75.037
-75.158
-75.233
-75.256
-75.224
-75.131
-74.977
-74.759
-74.478
-74.134
-73.725
-73.251
-72.709
-72.099
-71.418
-70.663
-69.834
-68.932
-67.959
-66.92
-65.82
-64.664
-63.457
-62.201
-60.902
-59.565
-58.194
-56.79
-55.355
-53.895
-52.421
-50.957
-49.517
-48.109
-46.737
-45.403
-44.105
-42.846
-41.611
-40.366
-39.076
-37.703
-36.224
-34.644
-32.963
-31.174
-29.261
-27.198
-24.983
-22.644
-20.197
-17.641
-14.961
-12.153
-9.272
-6.436
-3.789
-1.461
0.466
1.924
2.833
3.165
2.961
2.353
1.616
1.011
0.713
0.917
1.741
3.088
4.734
6.264
7.147
7.047
5.713
2.817
-1.762
-7.673
-14.041
-19.447
-22.498
-22.16
-17.403
-7.093
9.802
33.784
64.226
99.549
138.166
178.425
218.276
255.407
286.939
309.908
322.508
323.673
312.891
291.046
259.561
219.635
171.624
115.758
53.957
-9.034
-64.282
-103.775
-125.184
-129.857
-123.718
-112.753
-97.629
-79.808
-61.814
-45.986
-37.48
-37.592
-42.75
-49.45
-53.237
-52.474
-49.237
-45.001
-41.058
-37.77
-34.089
-29.774
-25.135
-20.557
-16.698
-13.804
-11.783
-10.555
-9.981
-9.928
-10.263
-10.839
-11.528
-12.212
-12.833
-13.356
-13.733
-13.941
-13.966
-13.782
-13.383
-12.782
-11.984
-11.008
-9.89
-8.65
-7.323
-5.949
-4.561
-3.208
-1.923
-0.721
0.384
1.388
2.294
3.102
3.818
4.463
5.051
5.595
6.113
6.615
7.113
7.626
8.173
8.772
9.442
10.194
11.038
11.985
13.041
14.213
15.502
16.908
18.431
20.071
21.83
23.706
25.7
27.807
30.023
32.343
34.761
37.268
39.853
42.504
45.209
47.954
50.725
53.507
56.285
59.043
61.763
64.429
67.023
69.528
71.924
74.193
76.318
78.279
80.061
81.647
83.02
84.165
85.068
85.716
86.096
86.198
86.01
85.524
84.733
83.63
82.21
80.472
78.412
76.033
73.335
70.323
67.001
63.378
59.461
55.26
50.787
46.055
41.077
35.87
30.451
24.837
19.048
13.104
7.026
0.835
-5.445
-11.793
-18.185
-24.597
-31.007
-37.39
-43.723
-49.983
-56.147
-62.194
-68.101
-73.849
-79.417
-84.787
-89.941
-94.863
-99.538
-103.951
-108.091
-111.946
-115.507
-118.766
-121.717
-124.355
-126.679
-128.685
-130.375
-131.751
-132.816
-133.574
-134.033
-134.199
-134.081
-133.689
-133.034
-132.129
-130.985
-129.616
-128.036
-126.259
-124.3
-122.174
-119.895
-117.478
-114.938
-112.288
-109.544
-106.718
-103.823
-100.871
-97.875
-94.844
-91.789
-88.716
-85.635
-82.551
-79.469
-76.393
-73.327
-70.273
-67.232
-64.205
-61.192
-58.191
-55.202
-52.221
-49.247
-46.276
-43.307
-40.335
-37.358
-34.373
-31.379
-28.372
-25.353
-22.319
-19.27
-16.207
-13.128
-10.037
-6.934
-3.823
-0.708
2.404
5.508
8.594
11.652
14.67
17.637
20.539
23.361
26.088
28.704
31.194
33.54
35.724
37.729
39.536
41.128
42.487
43.593
44.432
44.985
45.24
45.182
44.799
44.081
43.018
41.601
39.821
37.671
35.145
32.241
28.957
25.295
21.262
16.868
12.126
7.054
1.668
-4.015
-9.974
-16.192
-22.65
-29.333
-36.223
-43.3
-50.542
-57.929
-65.439
-73.056
-80.762
-88.537
-96.362
-104.219
-112.079
-119.919
-127.713
-135.421
-143.002
-150.405
-157.57
-164.455
-171.014
-177.196
-182.947
-188.195
-192.887
-197.002
-200.537
-203.513
-205.97
-207.928
-209.448
-210.65
-211.578
-212.226
-212.535
-212.298
-211.379
-209.752
-207.311
-204.011
-200.067
-195.827
-191.899
-189.163
-188.211
-189.451
-193.396
-200.147
-209.274
-219.925
-230.556
-239.313
-244.719
-245.255
-239.153
-225.189
-202.864
-173.066
-138.211
-100.742
-62.562
-24.048
15.027
52.747
84.858
104.367
103.975
81.342
40.469
-10.927
-64.94
-117.05
-168.036
-217.993
-262.841
-297.282
-314.882
-313.654
-298.231
-274.027
-246.621
-219.294
-192.343
-166.585
-142.453
-120.815
-103.377
-90.629
-82.665
-78.759
-76.753
-74.98
-72.646
-69.211
-64.641
-58.963
-51.815
-43.388
-34.562
-26.014
-18.155
-11.166
-4.845
0.936
6.05
10.589
14.859
19.08
23.456
28.081
32.867
37.77
42.828
48.028
53.339
58.737
64.157
69.559
74.929
80.236
85.441
90.502
95.379
100.051
104.508
108.744
112.76
116.56
120.149
123.537
126.725
129.712
132.499
135.086
137.478
139.682
141.705
143.555
145.244
146.78
148.171
149.42
150.531
151.504
152.342
153.044
153.614
154.056
154.375
154.577
154.669
154.656
154.545
154.342
154.052
153.678
153.225
152.697
152.095
151.426
150.693
149.9
149.052
148.153
147.207
146.218
145.191
144.128
143.033
141.908
140.755
139.575
138.37
137.141
135.888
134.612
133.312
131.986
130.633
129.251
127.836
126.386
124.895
123.359
121.774
120.135
118.435
116.671
114.837
112.927
110.937
108.861
106.695
104.431
102.067
99.597
97.017
94.322
91.509
88.575
85.518
82.336
79.029
75.595
72.037
68.356
64.553
60.634
56.603
52.466
48.23
43.903
39.495
35.016
30.479
25.895
21.278
16.642
12.002
7.373
2.773
-1.784
-6.279
-10.696
-15.017
-19.226
-23.304
-27.235
-31.002
-34.589
-37.981
-41.163
-44.121
-46.842
-49.314
-51.526
-53.467
-55.13
-56.507
-57.593
-58.384
-58.877
-59.073
-58.973
-58.579
-57.898
-56.934
-55.698
-54.197
-52.444
-50.45
-48.231
-45.801
-43.177
-40.375
-37.416
-34.317
-31.098
-27.78
-24.382
-20.926
-17.431
-13.918
-10.407
-6.919
-3.471
-0.084
3.223
6.433
9.529
12.496
15.318
17.983
20.481
22.801
24.935
26.877
28.623
30.169
31.513
32.654
33.595
34.338
34.886
35.247
35.428
35.437
35.284
34.981
34.539
33.972
33.292
32.512
31.647
30.71
29.715
28.677
27.612
26.536
25.463
24.408
23.387
22.414
21.503
20.664
19.907
19.24
18.668
18.2
17.838
17.588
17.453
17.437
17.544
17.781
18.149
18.65
19.282
20.04
20.92
21.913
23.012
24.208
25.494
26.861
28.302
29.815
31.392
33.026
34.703
36.398
38.091
39.767
41.415
43.029
44.613
46.173
47.724
49.291
50.9
52.578
54.346
56.215
58.185
60.25
62.411
64.687
67.086
69.604
72.217
74.874
77.522
80.117
82.593
84.868
86.841
88.386
89.39
89.762
89.435
88.397
86.616
84.02
80.629
76.546
71.989
67.332
62.909
58.944
55.65
53.243
51.782
51.23
51.346
51.591
51.421
50.398
48.347
45.431
42.202
39.473
38.191
39.57
45.03
56.024
73.501
97.717
128.062
163.212
201.727
241.765
280.739
315.583
343.371
361.579
368.649
363.889
346.615
316.796
275.753
225.815
169.984
111.668
53.866
-0.725
-48.94
-88.075
-116.793
-134.83
-142.933
-142.599
-135.36
-122.978
-107.984
-92.933
-79.511
-68.661
-60.622
-55.157
-52.025
-50.831
-50.668
-50.433
-49.446
-47.457
-44.536
-40.991
-37.052
-32.884
-28.811
-25.232
-22.355
-20.212
-18.702
-17.585
-16.656
-15.78
-14.788
-13.542
-11.96
-9.976
-7.572
-4.781
-1.622
1.879
5.688
9.783
14.132
18.68
23.375
28.154
32.943
37.677
42.286
46.714
50.923
54.882
58.567
61.968
65.074
67.883
70.399
72.621
74.548
76.185
77.535
78.609
79.421
79.988
80.329
80.462
80.402
80.163
79.758
79.202
78.508
77.689
76.757
75.73
74.627
73.476
72.299
71.119
69.957
68.831
67.762
66.771
65.871
65.073
64.389
63.832
63.421
63.183
63.132
63.269
63.586
64.069
64.702
65.474
66.366
67.345
68.391
69.492
70.653
71.903
73.252
74.692
76.202
77.738
79.278
80.821
82.369
83.929
85.51
87.108
88.751
90.491
92.339
94.274
96.231
98.091
99.768
101.213
102.385
103.271
103.84
104.031
103.801
103.114
101.925
100.193
97.842
94.751
90.868
86.193
80.781
74.761
68.229
61.238
53.85
46.112
38.081
29.831
21.415
12.861
4.222
-4.44
-13.028
-21.403
-29.48
-37.22
-44.62
-51.728
-58.57
-65.143
-71.453
-77.509
-83.314
-88.873
-94.17
-99.167
-103.844
-108.198
-112.246
-116.031
-119.572
-122.867
-125.907
-128.664
-131.123
-133.282
-135.135
-136.673
-137.896
-138.812
-139.444
-139.83
-140.003
-139.986
-139.802
-139.467
-139.006
-138.445
-137.814
-137.141
-136.453
-135.779
-135.145
-134.582
-134.115
-133.766
-133.553
-133.487
-133.581
-133.845
-134.289
-134.918
-135.736
-136.744
-137.941
-139.325
-140.889
-142.624
-144.521
-146.566
-148.747
-151.047
-153.453
-155.946
-158.508
-161.118
-163.755
-166.392
-169.002
-171.557
-174.027
-176.384
-178.602
-180.655
-182.52
-184.174
-185.603
-186.786
-187.707
-188.345
-188.674
-188.678
-188.346
-187.676
-186.674
-185.358
-183.752
-181.888
-179.8
-177.518
-175.06
-172.434
-169.631
-166.645
-163.462
-160.09
-156.55
-152.862
-149.04
-145.094
-141.026
-136.821
-132.449
-127.869
-123.028
-117.896
-112.469
-106.78
-100.897
-94.904
-88.905
-82.981
-77.191
-71.583
-66.203
-61.094
-56.302
-51.89
-47.936
-44.534
-41.799
-39.815
-38.629
-38.238
-38.591
-39.596
-41.124
-43.062
-45.312
-47.788
-50.422
-53.15
-55.903
-58.607
-61.173
-63.492
-65.438
-66.903
-67.798
-68.081
-67.751
-66.849
-65.471
-63.702
-61.619
-59.289
-56.756
-54.064
-51.26
-48.373
-45.432
-42.476
-39.552
-36.719
-34.027
-31.473
-29.011
-26.551
-23.939
-21.064
-17.796
-13.936
-9.401
-4.176
1.678
7.9
14.244
20.619
26.847
32.688
38.268
43.854
49.931
57.471
67.154
79.266
94.209
112.079
132.152
153.299
173.801
191.11
203.037
207.743
203.369
188.838
164.788
133.127
95.645
54.748
11.9
-33.011
-76.366
-113.387
-140.448
-151.867
-147.705
-132.61
-109.979
-87.345
-69.348
-56.448
-50.256
-47.991
-47.295
-47.666
-47.124
-46.299
-45.604
-44.524
-43.63
-42.424
-40.502
-38.238
-35.728
-33.363
-31.683
-30.774
-30.603
-31.107
-32.069
-33.327
-34.765
-36.223
-37.583
-38.786
-39.79
-40.566
-41.12
-41.447
-41.544
-41.424
-41.088
-40.543
-39.809
-38.914
-37.897
-36.799
-35.661
-34.527
-33.424
-32.369
-31.372
-30.437
-29.563
-28.75
-27.989
-27.269
-26.583
-25.927
-25.294
-24.677
-24.066
-23.449
-22.811
-22.141
-21.425
-20.657
-19.827
-18.931
-17.964
-16.924
-15.81
-14.62
-13.355
-12.012
-10.587
-9.077
-7.479
-5.792
-4.013
-2.139
-0.169
1.898
4.063
6.326
8.688
11.149
13.711
16.375
19.142
22.015
24.994
28.081
31.279
34.588
38.011
41.549
45.202
48.972
52.861
56.869
60.997
65.246
69.617
74.109
78.723
83.457
88.309
93.279
98.362
103.555
108.854
114.253
119.748
125.33
130.993
136.728
142.525
148.375
154.264
160.182
166.114
172.046
177.961
183.845
189.679
195.446
201.126
206.702
212.154
217.462
222.606
227.567
232.323
236.855
241.144
245.171
248.915
252.361
255.489
258.284
260.731
262.815
264.523
265.845
266.768
267.286
267.391
267.078
266.343
265.183
263.599
261.593
259.168
256.329
253.083
249.44
245.41
241.005
236.239
231.127
225.687
219.936
213.895
207.582
201.021
194.232
187.24
180.069
172.742
165.285
157.722
150.079
142.38
134.652
126.918
119.202
111.53
103.924
96.406
89
81.725
74.604
67.655
60.897
54.347
48.024
41.941
36.113
30.553
25.273
20.283
15.593
11.211
7.145
3.4
-0.02
-3.109
-5.867
-8.291
-10.381
-12.14
-13.569
-14.672
-15.453
-15.917
-16.071
-15.921
-15.476
-14.742
-13.731
-12.451
-10.914
-9.131
-7.115
-4.878
-2.434
0.2
3.011
5.984
9.102
12.35
15.71
19.167
22.703
26.299
29.937
33.597
37.26
40.907
44.516
48.071
51.551
54.938
58.216
61.366
64.371
67.217
69.885
72.36
74.626
76.667
78.47
80.022
81.311
82.323
83.05
83.486
83.624
83.462
82.994
82.218
81.135
79.749
78.064
76.085
73.82
71.275
68.462
65.394
62.086
58.553
54.811
50.874
46.762
42.497
38.099
33.583
28.96
24.228
19.395
14.479
9.498
4.486
-0.521
-5.491
-10.38
-15.131
-19.707
-24.074
-28.21
-32.122
-35.802
-39.222
-42.349
-45.111
-47.44
-49.311
-50.717
-51.691
-52.313
-52.664
-52.833
-52.977
-53.232
-53.638
-54.153
-54.602
-54.762
-54.509
-53.816
-52.718
-51.258
-49.635
-48.205
-47.427
-47.812
-49.612
-52.808
-57.174
-62.457
-68.169
-73.489
-77.503
-79.199
-77.936
-73.417
-65.415
-53.653
-37.976
-18.793
3.095
26.648
51.104
75.93
100.209
122.429
140.581
152.984
158.604
156.741
146.518
126.768
96.958
57.83
11.389
-39.902
-93.922
-148.743
-202.004
-250.48
-291.11
-322.054
-342.697
-353.419
-354.747
-347.066
-331.508
-310.602
-287.353
-264.298
-243.509
-226.11
-212.894
-204.983
-202.801
-205.538
-211.825
-220.1
-228.701
-236.703
-243.493
-248.094
-250.003
-249.349
-246.506
-242.256
-237.559
-232.85
-228.35
-224.424
-221.162
-218.51
-216.403
-214.493
-212.367
-209.87
-206.933
-203.517
-199.699
-195.519
-190.994
-186.238
-181.366
-176.448
-171.551
-166.703
-161.918
-157.245
-152.73
-148.406
-144.312
-140.464
-136.873
-133.556
-130.517
-127.759
-125.287
-123.102
-121.203
-119.598
-118.283
-117.255
-116.507
-116.028
-115.801
-115.814
-116.047
-116.483
-117.105
-117.894
-118.833
-119.903
-121.085
-122.353
-123.684
-125.051
-126.429
-127.793
-129.116
-130.372
-131.538
-132.591
-133.509
-134.273
-134.864
-135.263
-135.453
-135.419
-135.148
-134.628
-133.85
-132.804
-131.484
-129.886
-128.008
-125.849
-123.412
-120.698
-117.713
-114.465
-110.964
-107.226
-103.264
-99.095
-94.738
-90.211
-85.538
-80.741
-75.838
-70.847
-65.788
-60.681
-55.548
-50.411
-45.29
-40.207
-35.18
-30.231
-25.383
-20.656
-16.064
-11.612
-7.302
-3.144
0.838
4.616
8.169
11.48
14.533
17.308
19.776
21.924
23.758
25.305
26.597
27.652
28.473
29.047
29.364
29.434
29.29
28.972
28.504
27.91
27.227
26.514
25.845
25.257
24.738
24.231
23.675
23.046
22.344
21.586
20.781
19.916
18.967
17.915
16.762
15.5
14.101
12.499
10.611
8.412
5.943
3.301
0.579
-2.168
-4.909
-7.624
-10.274
-12.813
-15.204
-17.43
-19.49
-21.366
-23.016
-24.363
-25.326
-25.87
-26.016
-25.826
-25.354
-24.634
-23.684
-22.528
-21.204
-19.751
-18.186
-16.508
-14.711
-12.805
-10.821
-8.808
-6.815
-4.869
-2.975
-1.123
0.691
2.462
4.183
5.852
7.474
9.05
10.566
11.997
13.32
14.519
15.588
16.526
17.331
17.996
18.514
18.878
19.085
19.132
19.017
18.737
18.29
17.677
16.906
15.987
14.932
13.75
12.451
11.044
9.543
7.96
6.304
4.587
2.818
1.008
-0.831
-2.687
-4.551
-6.412
-8.263
-10.096
-11.906
-13.688
-15.438
-17.152
-18.828
-20.464
-22.055
-23.601
-25.098
-26.543
-27.938
-29.284
-30.585
-31.849
-33.085
-34.298
-35.498
-36.69
-37.88
-39.076
-40.278
-41.489
-42.712
-43.954
-45.226
-46.544
-47.912
-49.33
-50.797
-52.292
-53.796
-55.296
-56.76
-58.159
-59.466
-60.64
-61.661
-62.535
-63.261
-63.806
-64.126
-64.177
-63.94
-63.445
-62.737
-61.832
-60.725
-59.535
-58.446
-57.471
-56.685
-56.193
-55.822
-56.168
-57.83
-60.008
-62.472
-63.826
-62.245
-59.495
-56.679
-55.358
-57.848
-61.714
-64.778
-65.479
-61.661
-54.952
-47.185
-39.434
-33.238
-28.221
-23.785
-19.803
-15.508
-10.594
-4.621
3.791
15.966
33.06
55.987
84.636
117.619
153.324
190.327
227.031
263.283
299.342
333.203
361.244
377.235
373.945
348.361
302.889
244.737
182.689
122.788
66.942
14.434
-34.444
-77.52
-111.807
-134.775
-146.385
-148.175
-141.559
-128.268
-110.173
-89.53
-69.256
-51.338
-36.365
-24.568
-16.038
-10.694
-8.585
-8.92
-9.956
-10.676
-10.76
-10.007
-8.555
-6.368
-3.031
1.202
5.457
9.278
12.44
14.887
16.927
18.637
19.84
20.684
21.506
22.536
23.991
25.927
28.218
30.845
33.852
37.219
40.91
44.861
48.977
53.215
57.553
61.953
66.371
70.743
75.008
79.134
83.1
86.894
90.515
93.958
97.221
100.316
103.246
106.015
108.63
111.09
113.4
115.568
117.601
119.51
121.309
123.004
124.602
126.107
127.523
128.85
130.09
131.241
132.303
133.279
134.172
134.984
135.719
136.377
136.962
137.473
137.911
138.275
138.56
138.763
138.882
138.913
138.852
138.695
138.44
138.081
137.616
137.042
136.356
135.555
134.636
133.597
132.436
131.152
129.746
128.217
126.566
124.793
122.9
120.891
118.769
116.536
114.196
111.756
109.22
106.595
103.889
101.11
98.266
95.369
92.429
89.457
86.466
83.469
80.478
77.506
74.567
71.674
68.839
66.075
63.395
60.809
58.329
55.966
53.729
51.629
49.673
47.869
46.225
44.746
43.44
42.309
41.359
40.592
40.011
39.617
39.411
39.391
39.558
39.907
40.436
41.141
42.015
43.054
44.251
45.597
47.085
48.706
50.452
52.313
54.279
56.342
58.491
60.717
63.011
65.363
67.764
70.206
72.68
75.178
77.69
80.21
82.73
85.243
87.742
90.221
92.674
95.095
97.48
99.824
102.121
104.369
106.564
108.702
110.78
112.797
114.75
116.638
118.459
120.212
121.897
123.512
125.056
126.529
127.929
129.256
130.508
131.684
132.783
133.804
134.746
135.607
136.386
137.081
137.69
138.211
138.642
138.981
139.224
139.37
139.417
139.363
139.208
138.95
138.59
138.127
137.561
136.895
136.127
135.258
134.292
133.229
132.072
130.825
129.493
128.08
126.593
125.038
123.422
121.754
120.04
118.29
116.51
114.71
112.899
111.088
109.287
107.507
105.761
104.062
102.42
100.849
99.358
97.955
96.65
95.447
94.35
93.366
92.498
91.75
91.127
90.632
90.271
90.047
89.961
90.012
90.198
90.517
90.961
91.524
92.197
92.972
93.84
94.79
95.81
96.889
98.01
99.156
100.303
101.42
102.48
103.461
104.338
105.091
105.703
106.158
106.45
106.593
106.593
106.455
106.185
105.785
105.261
104.626
103.89
103.044
102.09
101.054
99.944
98.772
97.54
96.19
94.651
92.889
90.744
87.898
84.203
79.587
73.863
67.178
59.25
49.072
37.148
24.823
13.892
7.819
6.856
7.651
6.769
-0.831
-16.535
-36.437
-57.136
-75.126
-89.643
-103.518
-118.036
-133.143
-147.245
-157.487
-162.445
-161.314
-153.114
-137.524
-114.477
-84.685
-50.673
-15.269
19.594
52.253
82.59
111.507
137.767
157.971
165.984
154.599
120.488
66.344
0.273
-68.671
-134.1
-193.86
-249.052
-299.374
-342.749
-376.723
-398.952
-409.333
-409.606
-401.453
-386.957
-368.683
-349.039
-330.387
-314.373
-301.455
-291.589
-284.666
-280.253
-277.666
-275.984
-274.088
-271.382
-267.847
-263.662
-259.15
-254.629
-250.357
-246.734
-244.235
-243.044
-243.117
-244.232
-245.997
-248.121
-250.401
-252.643
-254.708
-256.477
-257.853
-258.81
-259.37
-259.53
-259.283
-258.577
-257.318
-255.491
-253.131
-250.322
-247.21
-243.913
-240.516
-237.101
-233.727
-230.443
-227.288
-224.267
-221.358
-218.552
-215.845
-213.26
-210.847
-208.624
-206.588
-204.717
-202.966
-201.299
-199.691
-198.108
-196.518
-194.896
-193.227
-191.507
-189.749
-187.959
-186.134
-184.269
-182.348
-180.36
-178.3
-176.163
-173.946
-171.648
-169.264
-166.798
-164.255
-161.64
-158.956
-156.204
-153.382
-150.491
-147.535
-144.519
-141.446
-138.325
-135.163
-131.97
-128.757
-125.538
-122.324
-119.128
-115.964
-112.843
-109.78
-106.786
-103.876
-101.062
-98.356
-95.771
-93.319
-91.011
-88.859
-86.871
-85.058
-83.427
-81.984
-80.735
-79.682
-78.828
-78.171
-77.712
-77.448
-77.373
-77.483
-77.77
-78.227
-78.843
-79.608
-80.508
-81.53
-82.658
-83.878
-85.171
-86.522
-87.913
-89.324
-90.739
-92.139
-93.507
-94.823
-96.071
-97.233
-98.292
-99.233
-100.04
-100.7
-101.2
-101.528
-101.674
-101.63
-101.389
-100.945
-100.294
-99.434
-98.364
-97.085
-95.598
-93.909
-92.021
-89.941
-87.676
-85.236
-82.63
-79.869
-76.963
-73.926
-70.771
-67.509
-64.155
-60.723
-57.225
-53.677
-50.09
-46.48
-42.858
-39.237
-35.63
-32.048
-28.501
-25
-21.552
-18.166
-14.848
-11.604
-8.437
-5.352
-2.349
0.57
3.405
6.157
8.829
11.423
13.943
16.394
18.782
21.112
23.392
25.628
27.828
30
32.151
34.287
36.418
38.551
40.692
42.851
45.034
47.25
49.506
51.811
54.171
56.594
59.087
61.654
64.301
67.033
69.854
72.768
75.778
78.886
82.096
85.409
88.827
92.351
95.982
99.718
103.559
107.502
111.545
115.687
119.923
124.252
128.672
133.181
137.776
142.456
147.218
152.057
156.968
161.945
166.978
172.059
177.177
182.323
187.485
192.656
197.828
202.993
208.141
213.268
218.363
223.417
228.42
233.359
238.221
242.993
247.663
252.219
256.652
260.946
265.09
269.074
272.885
276.504
279.908
283.064
285.946
288.535
290.811
292.764
294.385
295.669
296.626
297.285
297.674
297.825
297.764
297.493
297.017
296.348
295.503
294.504
293.356
292.041
290.535
288.837
286.958
284.882
282.547
279.837
276.609
272.724
268.092
262.614
256.167
248.737
240.38
231.25
221.689
212.016
202.46
193.292
184.692
176.57
168.706
160.686
151.818
141.464
129.187
114.679
97.908
80.062
62.678
46.707
34.007
25.038
19.972
22.186
33.504
55.616
90.074
132.497
178.271
222.911
260.502
289.169
307.737
314.629
309.873
292.701
262.911
222.456
174.185
121.436
67.809
16.209
-30.934
-70.928
-101.608
-122.179
-132.917
-134.873
-129.752
-119.244
-105.168
-90.041
-76.243
-65.28
-57.966
-54.443
-54.391
-57.417
-62.899
-69.72
-76.724
-83.203
-88.855
-93.757
-98.164
-102.256
-106.201
-110.286
-114.827
-119.948
-125.596
-131.556
-137.527
-143.316
-148.832
-154.012
-158.798
-163.155
-167.053
-170.486
-173.491
-176.08
-178.241
-179.96
-181.218
-182.018
-182.399
-182.419
-182.143
-181.612
-180.851
-179.87
-178.673
-177.265
-175.651
-173.829
-171.789
-169.531
-167.066
-164.411
-161.591
-158.621
-155.509
-152.262
-148.884
-145.384
-141.771
-138.056
-134.25
-130.364
-126.413
-122.412
-118.382
-114.337
-110.289
-106.249
-102.225
-98.226
-94.26
-90.334
-86.451
-82.616
-78.834
-75.109
-71.444
-67.843
-64.306
-60.836
-57.433
-54.097
-50.828
-47.623
-44.482
-41.4
-38.378
-35.411
-32.499
-29.638
-26.829
-24.07
-21.362
-18.703
-16.094
-13.535
-11.027
-8.571
-6.169
-3.821
-1.531
0.7
2.867
4.967
6.996
8.949
10.823
12.614
14.318
15.932
17.452
18.875
20.199
21.422
22.543
23.56
24.474
25.284
25.993
26.602
27.114
27.533
27.866
28.116
28.292
28.402
28.453
28.455
28.417
28.35
28.264
28.171
28.081
28.005
27.955
27.943
27.979
28.074
28.239
28.482
28.813
29.239
29.767
30.403
31.151
32.013
32.991
34.084
35.292
36.61
38.034
39.558
41.173
42.869
44.636
46.46
48.329
50.226
52.136
54.041
55.923
57.765
59.547
61.251
62.858
64.348
65.703
66.904
67.934
68.776
69.413
69.832
70.019
69.961
69.651
69.079
68.24
67.13
65.749
64.098
62.18
60
57.568
54.893
51.989
48.871
45.556
42.063
38.413
34.628
30.733
26.752
22.711
18.637
14.557
10.499
6.491
2.56
-1.266
-4.959
-8.493
-11.842
-14.98
-17.884
-20.532
-22.904
-24.982
-26.751
-28.197
-29.312
-30.087
-30.518
-30.603
-30.343
-29.744
-28.812
-27.558
-25.994
-24.136
-22.001
-19.611
-16.986
-14.152
-11.132
-7.952
-4.641
-1.228
2.258
5.786
9.327
12.85
16.325
19.72
23.006
26.155
29.14
31.934
34.513
36.854
38.937
40.748
42.277
43.517
44.462
45.108
45.454
45.506
45.268
44.748
43.95
42.881
41.551
39.976
38.176
36.176
33.994
31.649
29.165
26.564
23.876
21.129
18.353
15.579
12.849
10.215
7.732
5.459
3.444
1.731
0.349
-0.687
-1.364
-1.682
-1.628
-1.181
-0.347
0.86
2.41
4.25
6.342
8.662
11.137
13.666
16.219
18.786
21.483
24.614
28.332
32.654
37.597
43.128
49.178
55.741
62.573
68.867
74.015
77.961
80.76
83.305
87.046
92.064
98.385
105.952
113.072
120.955
132.96
151.847
181.815
221.864
265.069
305.063
335.32
354.404
366.289
372.523
372.314
360.938
332.026
283.358
215.942
135.658
51.354
-28.511
-94.023
-137.679
-157.465
-154.073
-132.176
-99.562
-61.91
-25.203
3.24
19.556
22.52
14.12
1.938
-6.23
-6.536
1.944
16.257
31.626
45.896
58.609
70.05
81.25
92.205
102.122
110.495
117.018
121.614
124.48
125.785
125.585
123.998
121.177
117.26
112.449
106.947
100.944
94.653
88.244
81.84
75.571
69.541
63.849
58.615
53.919
49.809
46.327
43.478
41.249
39.623
38.523
37.848
37.495
37.336
37.286
37.303
37.337
37.36
37.35
37.264
37.079
36.795
36.403
35.901
35.29
34.565
33.746
32.867
31.969
31.096
30.28
29.527
28.843
28.228
27.672
27.17
26.709
26.263
25.812
25.343
24.841
24.299
23.702
23.028
22.256
21.367
20.343
19.171
17.84
16.339
14.662
12.806
10.772
8.565
6.189
3.646
0.941
-1.921
-4.935
-8.09
-11.376
-14.784
-18.301
-21.911
-25.597
-29.342
-33.125
-36.927
-40.728
-44.509
-48.247
-51.923
-55.517
-59.009
-62.382
-65.616
-68.695
-71.603
-74.325
-76.848
-79.161
-81.253
-83.118
-84.749
-86.144
-87.301
-88.22
-88.904
-89.357
-89.584
-89.595
-89.398
-89.005
-88.43
-87.687
-86.794
-85.77
-84.633
-83.406
-82.11
-80.769
-79.406
-78.044
-76.707
-75.42
-74.206
-73.087
-72.086
-71.225
-70.524
-70.004
-69.681
-69.574
-69.697
-70.064
-70.686
-71.573
-72.734
-74.175
-75.9
-77.911
-80.209
-82.794
-85.661
-88.805
-92.22
-95.897
-99.824
-103.99
-108.379
-112.975
-117.762
-122.72
-127.828
-133.066
-138.411
-143.839
-149.326
-154.848
-160.379
-165.892
-171.362
-176.762
-182.064
-187.244
-192.273
-197.127
-201.78
-206.207
-210.384
-214.287
-217.894
-221.181
-224.128
-226.713
-228.918
-230.723
-232.113
-233.07
-233.581
-233.634
-233.22
-232.328
-230.953
-229.09
-226.736
-223.889
-220.552
-216.726
-212.417
-207.633
-202.382
-196.679
-190.536
-183.971
-177.004
-169.654
-161.945
-153.901
-145.549
-136.916
-128.033
-118.931
-109.642
-100.2
-90.645
-81.013
-71.347
-61.687
-52.075
-42.552
-33.163
-23.945
-14.939
-6.182
2.292
10.45
18.257
25.682
32.691
39.251
45.334
50.915
55.968
60.478
64.425
67.8
70.601
72.826
74.473
75.541
76.017
75.896
75.186
73.896
72.049
69.676
66.807
63.486
59.773
55.726
51.409
46.881
42.174
37.32
32.355
27.327
22.301
17.343
12.482
7.735
3.11
-1.384
-5.737
-9.951
-14.07
-18.162
-22.297
-26.535
-30.9
-35.39
-39.996
-44.761
-49.769
-55.008
-60.35
-65.52
-70.122
-73.851
-76.51
-77.825
-77.529
-75.556
-72.033
-67.533
-63.024
-59.304
-56.989
-56.552
-57.967
-60.766
-64.147
-66.564
-66.013
-60.569
-48.273
-27.634
1.809
39.67
84.756
134.912
187.487
239.286
286.434
325.302
352.898
367.078
366.752
351.463
321.431
278.29
224.897
164.655
101.38
38.562
-20.461
-71.958
-112.914
-141.78
-158.776
-165.071
-161.48
-149.324
-129.436
-103.736
-77.249
-53.086
-34.408
-24.258
-20.353
-21.055
-24.38
-26.164
-26.319
-25.51
-23.569
-21.526
-18.885
-14.545
-8.85
-2.652
3.217
8.096
11.864
14.796
16.988
18.285
18.754
18.698
18.391
18.127
18.051
18.098
18.249
18.543
18.985
19.569
20.266
21.002
21.713
22.377
22.965
23.451
23.803
23.968
23.891
23.518
22.812
21.755
20.336
18.553
16.401
13.877
10.991
7.765
4.221
0.38
-3.738
-8.121
-12.747
-17.583
-22.597
-27.758
-33.036
-38.408
-43.846
-49.322
-54.811
-60.287
-65.726
-71.11
-76.414
-81.617
-86.693
-91.621
-96.379
-100.949
-105.312
-109.451
-113.351
-116.998
-120.381
-123.491
-126.321
-128.864
-131.117
-133.076
-134.743
-136.119
-137.207
-138.012
-138.542
-138.808
-138.819
-138.59
-138.134
-137.468
-136.608
-135.574
-134.384
-133.059
-131.619
-130.085
-128.478
-126.821
-125.136
-123.443
-121.764
-120.119
-118.53
-117.017
-115.598
-114.292
-113.116
-112.085
-111.216
-110.523
-110.016
-109.709
-109.611
-109.731
-110.075
-110.649
-111.457
-112.501
-113.782
-115.298
-117.046
-119.023
-121.223
-123.637
-126.257
-129.073
-132.075
-135.25
-138.585
-142.068
-145.682
-149.415
-153.249
-157.169
-161.159
-165.202
-169.282
-173.38
-177.481
-181.567
-185.621
-189.626
-193.565
-197.422
-201.18
-204.822
-208.334
-211.701
-214.907
-217.94
-220.785
-223.432
-225.868
-228.084
-230.07
-231.816
-233.316
-234.56
-235.543
-236.258
-236.7
-236.863
-236.742
-236.334
-235.635
-234.642
-233.352
-231.762
-229.87
-227.674
-225.174
-222.367
-219.255
-215.836
-212.113
-208.087
-203.761
-199.139
-194.225
-189.022
-183.537
-177.774
-171.739
-165.44
-158.883
-152.076
-145.026
-137.743
-130.238
-122.521
-114.605
-106.502
-98.226
-89.791
-81.212
-72.505
-63.687
-54.776
-45.789
-36.748
-27.674
-18.59
-9.519
-0.484
8.491
17.381
26.163
34.812
43.307
51.625
59.742
67.636
75.282
82.657
89.74
96.506
102.932
108.995
114.675
119.955
124.818
129.25
133.24
136.775
139.849
142.457
144.594
146.256
147.44
148.147
148.378
148.14
147.441
146.29
144.697
142.678
140.245
137.42
134.217
130.647
126.72
122.441
117.822
112.879
107.628
102.087
96.29
90.277
84.105
77.841
71.534
65.224
58.948
52.728
46.596
40.586
34.71
29.001
23.497
18.234
13.278
8.664
4.372
0.345
-3.525
-7.375
-11.284
-15.346
-19.69
-24.326
-29.196
-34.151
-38.871
-43.13
-46.841
-49.857
-52.108
-53.779
-55.138
-56.681
-59.158
-62.986
-68.41
-75.766
-84.984
-95.508
-106.476
-116.462
-123.781
-127.206
-125.504
-117.287
-101.864
-79.211
-50.042
-16.083
20.735
58.683
95.427
128.133
154.301
171.737
179.134
176.216
162.63
138.205
103.955
61.862
14.516
-35.013
-84.132
-130.7
-172.002
-205.381
-229.168
-242.649
-246.262
-241.281
-228.943
-210.486
-187.836
-163.386
-139.306
-117.313
-98.213
-82.146
-69.196
-59.537
-53.059
-49.005
-46.326
-43.938
-41.226
-38.086
-34.461
-30.109
-24.718
-18.32
-11.299
-4.279
2.318
8.454
14.178
19.497
24.308
28.532
32.287
35.884
39.569
43.423
47.452
51.598
55.851
60.256
64.795
69.397
73.989
78.509
82.924
87.235
91.429
95.485
99.394
103.143
106.732
110.176
113.486
116.678
119.773
122.782
125.716
128.591
131.417
134.206
136.975
139.736
142.5
145.28
148.085
150.926
153.809
156.739
159.715
162.736
165.795
168.889
172.014
175.166
178.34
181.528
184.724
187.919
191.103
194.265
197.394
200.473
203.488
206.423
209.263
211.994
214.6
217.066
219.38
221.526
223.492
225.267
226.837
228.191
229.319
230.211
230.857
231.252
231.389
231.262
230.868
230.204
229.268
228.062
226.586
224.843
222.837
220.573
218.057
215.298
212.304
209.086
205.655
202.024
198.208
194.221
190.078
185.794
181.387
176.873
172.269
167.591
162.856
158.081
153.282
148.476
143.679
138.906
134.174
129.496
124.887
120.361
115.931
111.609
107.406
103.334
99.403
95.62
91.994
88.533
85.242
82.127
79.192
76.44
73.873
71.493
69.299
67.292
65.469
63.83
62.369
61.086
59.974
59.031
58.25
57.627
57.156
56.831
56.645
56.592
56.664
56.854
57.154
57.558
58.056
58.641
59.307
60.045
60.849
61.711
62.624
63.582
64.577
65.604
66.658
67.732
68.822
69.924
71.033
72.148
73.264
74.379
75.49
76.596
77.693
78.78
79.856
80.917
81.964
82.995
84.009
85.006
85.986
86.949
87.894
88.822
89.733
90.627
91.504
92.362
93.202
94.024
94.826
95.609
96.373
97.116
97.837
98.534
99.204
99.843
100.448
101.013
101.534
102.007
102.426
102.789
103.09
103.325
103.49
103.582
103.595
103.524
103.363
103.107
102.748
102.283
101.706
101.009
100.191
99.248
98.179
96.983
95.657
94.2
92.612
90.898
89.059
87.1
85.024
82.836
80.543
78.156
75.685
73.14
70.53
67.862
65.146
62.392
59.611
56.81
53.986
51.126
48.23
45.302
42.357
39.42
36.513
33.656
30.882
28.234
25.747
23.454
21.374
19.498
17.837
16.417
15.281
14.506
14.165
14.282
14.86
15.864
17.224
18.874
20.732
22.639
24.438
26.072
27.593
29.192
31.16
33.666
36.752
40.477
44.858
49.677
54.564
58.891
61.781
62.673
61.308
57.448
51.231
43.332
34.713
26.848
21.597
20.344
24.369
35.09
53.129
78.331
109.898
146.081
184.866
224.566
262.898
296.985
324.514
343.625
353.201
353.04
342.732
321.8
291.639
255.257
215.346
174.2
131.711
86.176
39.256
-4.284
-37.445
-53.207
-49.811
-31.186
-4.889
21.342
42.939
59.076
71.862
83.293
93.891
103.313
110.677
115.928
120.11
124.365
129.405
135.38
142.05
149.095
156.255
163.256
169.714
175.225
179.614
182.907
185.228
186.763
187.65
187.978
187.896
187.582
187.154
186.693
186.235
185.762
185.288
184.844
184.435
184.058
183.694
183.302
182.852
182.328
181.697
180.932
179.997
178.847
177.456
175.815
173.918
171.772
169.386
166.761
163.913
160.864
157.632
154.24
150.706
147.043
143.27
139.409
135.483
131.515
127.527
123.534
119.551
115.594
111.674
107.805
103.995
100.25
96.578
92.989
89.493
86.099
82.816
79.651
76.611
73.702
70.931
68.301
65.816
63.477
61.288
59.25
57.365
55.636
54.063
52.646
51.388
50.287
49.343
48.554
47.917
47.431
47.09
46.893
46.834
46.909
47.113
47.44
47.886
48.443
49.105
49.865
50.715
51.648
52.655
53.727
54.855
56.032
57.246
58.49
59.752
61.024
62.294
63.553
64.788
65.99
67.145
68.242
69.268
70.213
71.063
71.807
72.432
72.928
73.282
73.484
73.522
73.386
73.065
72.55
71.83
70.897
69.742
68.357
66.735
64.869
62.753
60.382
57.751
54.855
51.692
48.259
44.555
40.579
36.332
31.816
27.033
21.988
16.685
11.13
5.33
-0.707
-6.972
-13.457
-20.15
-27.04
-34.115
-41.361
-48.766
-56.314
-63.99
-71.779
-79.664
-87.628
-95.655
-103.726
-111.824
-119.93
-128.025
-136.09
-144.107
-152.056
-159.919
-167.677
-175.313
-182.809
-190.149
-197.318
-204.3
-211.08
-217.646
-223.985
-230.083
-235.931
-241.517
-246.833
-251.872
-256.627
-261.094
-265.27
-269.152
-272.739
-276.033
-279.034
-281.746
-284.172
-286.318
-288.191
-289.798
-291.151
-292.262
-293.143
-293.808
-294.271
-294.549
-294.657
-294.612
-294.428
-294.121
-293.708
-293.207
-292.635
-292.011
-291.353
-290.681
-290.016
-289.377
-288.784
-288.252
-287.796
-287.43
-287.167
-287.017
-286.988
-287.09
-287.328
-287.708
-288.24
-288.929
-289.777
-290.784
-291.949
-293.273
-294.755
-296.392
-298.175
-300.098
-302.155
-304.348
-306.686
-309.171
-311.797
-314.557
-317.441
-320.438
-323.535
-326.7
-329.878
-333.014
-336.049
-338.946
-341.693
-344.266
-346.639
-348.786
-350.674
-352.291
-353.655
-354.757
-355.559
-356.049
-356.23
-356.166
-356.014
-355.92
-356.009
-356.41
-357.216
-358.459
-360.109
-362.025
-363.954
-365.669
-366.964
-367.625
-367.539
-366.807
-365.743
-364.861
-364.692
-365.537
-367.555
-370.97
-375.871
-381.868
-388.014
-392.838
-394.875
-393.095
-386.588
-374.256
-355.048
-328.473
-295.076
-256.384
-213.984
-169.347
-124.426
-81.728
-44.21
-14.672
5.171
14.396
11.876
-3.131
-29.495
-64.563
-105.124
-148.176
-193.338
-241.298
-289.627
-333.835
-367.543
-383.903
-380.204
-357.038
-318.075
-270.234
-221.367
-179.506
-149.681
-132.545
-125.342
-122.49
-119.552
-114.723
-107.882
-100.718
-94.785
-90.244
-86.429
-81.961
-75.745
-67.722
-58.626
-49.58
-41.222
-33.653
-26.785
-20.489
-14.86
-9.981
-5.692
-1.683
2.3
6.379
10.545
14.718
18.893
23.095
27.316
31.526
35.667
39.689
43.563
47.281
50.824
54.162
57.275
60.145
62.768
65.152
67.311
69.263
71.031
72.635
74.092
75.412
76.609
77.701
78.705
79.644
80.536
81.407
82.28
83.182
84.137
85.164
86.28
87.497
88.829
90.286
91.881
93.625
95.529
97.604
99.861
102.308
104.952
107.801
110.856
114.119
117.589
121.262
125.135
129.203
133.458
137.893
142.5
147.267
152.185
157.239
162.415
167.7
173.075
178.524
184.028
189.568
195.123
200.675
206.204
211.69
217.112
222.451
227.688
232.803
237.777
242.592
247.229
251.673
255.905
259.912
263.68
267.194
270.445
273.421
276.113
278.514
280.618
282.42
283.916
285.105
285.985
286.559
286.828
286.798
286.474
285.863
284.974
283.816
282.401
280.74
278.847
276.734
274.418
271.913
269.235
266.401
263.427
260.332
257.132
253.845
250.487
247.077
243.632
240.167
236.701
233.248
229.825
226.446
223.126
219.877
216.713
213.643
210.678
207.827
205.096
202.492
200.018
197.679
195.476
193.411
191.481
189.686
188.023
186.487
185.073
183.774
182.583
181.492
180.491
179.573
178.726
177.942
177.21
176.519
175.859
175.22
174.591
173.96
173.318
172.653
171.956
171.218
170.429
169.581
168.669
167.686
166.627
165.49
164.27
162.966
161.578
160.104
158.545
156.903
155.18
153.381
151.51
149.572
147.574
145.523
143.427
141.292
139.126
136.936
134.725
132.502
130.27
128.035
125.802
123.575
121.359
119.159
116.978
114.818
112.68
110.563
108.465
106.382
104.309
102.239
100.164
98.077
95.97
93.837
91.669
89.459
87.199
84.883
82.499
80.035
77.478
74.815
72.033
69.121
66.068
62.861
59.494
55.958
52.248
48.367
44.308
40.066
35.631
30.99
26.137
21.077
15.811
10.342
4.678
-1.167
-7.163
-13.254
-19.398
-25.564
-31.729
-37.887
-44.022
-50.112
-56.136
-62.076
-67.925
-73.681
-79.325
-84.81
-90.099
-95.178
-100.105
-105.009
-110.002
-115.172
-120.542
-126.13
-132
-138.13
-144.423
-150.709
-156.661
-162.029
-166.822
-171.086
-174.848
-178.341
-181.692
-185.033
-188.866
-193.451
-198.591
-204.07
-209.481
-214.114
-217.518
-219.182
-218.188
-214.066
-206.814
-196.394
-182.891
-166.461
-147.136
-125.192
-101.854
-78.584
-55.622
-33.198
-10.927
12.661
34.955
51.062
56.283
44.16
14.409
-26.989
-75.143
-124.603
-174.152
-227.65
-284.585
-340.124
-386.379
-414.204
-420.146
-407.315
-383.3
-356.238
-331.358
-310.856
-293.485
-277.79
-264.143
-253.664
-247.986
-247.717
-251.344
-256.382
-261.142
-264.802
-267.038
-267.739
-266.467
-262.967
-257.8
-252.056
-246.508
-241.499
-237.046
-232.985
-229.374
-226.285
-223.54
-220.79
-217.735
-214.226
-210.247
-205.888
-201.185
-196.127
-190.737
-185.068
-179.187
-173.158
-167.038
-160.866
-154.69
-148.579
-142.585
-136.75
-131.111
-125.689
-120.497
-115.55
-110.848
-106.39
-102.185
-98.247
-94.587
-91.216
-88.132
-85.332
-82.815
-80.573
-78.597
-76.877
-75.399
-74.155
-73.138
-72.344
-71.767
-71.401
-71.237
-71.264
-71.468
-71.836
-72.352
-73.001
-73.768
-74.637
-75.593
-76.626
-77.723
-78.873
-80.068
-81.296
-82.549
-83.819
-85.097
-86.376
-87.649
-88.912
-90.158
-91.386
-92.591
-93.773
-94.93
-96.063
-97.172
-98.258
-99.322
-100.366
-101.391
-102.401
-103.397
-104.384
-105.363
-106.338
-107.313
-108.29
-109.273
-110.264
-111.264
-112.273
-113.292
-114.318
-115.351
-116.386
-117.421
-118.451
-119.47
-120.473
-121.452
-122.401
-123.312
-124.175
-124.981
-125.722
-126.385
-126.962
-127.441
-127.811
-128.063
-128.186
-128.17
-128.005
-127.682
-127.19
-126.523
-125.672
-124.629
-123.388
-121.944
-120.292
-118.43
-116.355
-114.068
-111.569
-108.861
-105.948
-102.833
-99.524
-96.028
-92.354
-88.512
-84.512
-80.369
-76.095
-71.704
-67.214
-62.64
-57.998
-53.308
-48.585
-43.849
-39.117
-34.408
-29.739
-25.128
-20.594
-16.153
-11.823
-7.619
-3.557
0.349
4.087
7.645
11.014
14.185
17.152
19.908
22.449
24.774
26.881
28.77
30.444
31.908
33.167
34.231
35.109
35.813
36.356
36.753
37.02
37.174
37.232
37.212
37.135
37.02
36.888
36.762
36.662
36.612
36.634
36.75
36.979
37.343
37.859
38.544
39.414
40.484
41.768
43.277
45.023
47.016
49.266
51.777
54.555
57.602
60.915
64.492
68.325
72.407
76.725
81.266
86.016
90.961
96.083
101.367
106.794
112.347
118.004
123.744
129.544
135.379
141.222
147.049
152.833
158.553
164.188
169.715
175.118
180.377
185.477
190.399
195.122
199.621
203.866
207.832
211.493
214.835
217.847
220.526
222.881
224.933
226.706
228.233
229.536
230.624
231.507
232.184
232.664
232.966
233.117
233.147
233.095
232.994
232.874
232.772
232.673
232.517
232.232
231.704
230.841
229.61
227.965
225.867
223.376
220.589
217.637
214.762
212.174
210.002
208.382
207.372
206.824
206.523
206.221
205.493
203.763
200.543
195.609
188.882
181.485
174.804
169.112
165.659
164.723
166.31
173.632
187.95
210.217
242.498
281.427
324.542
369.367
408.713
439.851
459.905
465.144
457.949
438.779
408.181
369.888
324.809
274.629
222.45
170.022
120.667
78.594
46.561
26.145
16.908
17.345
26.922
44.621
69.828
100.925
132.747
161.917
185.301
199.779
207.283
209.241
207.239
204.986
202.905
200.709
198.678
196.041
193.43
191.95
191.558
191.691
191.299
189.549
186.319
181.823
176.286
169.749
162.226
153.935
145.274
136.596
128.084
119.762
111.6
103.64
95.994
88.773
82.019
75.723
69.839
64.309
59.071
54.032
49.105
44.226
39.337
34.414
29.454
24.465
19.464
14.473
9.488
4.48
-0.576
-5.695
-10.872
-16.08
-21.282
-26.426
-31.464
-36.349
-41.039
-45.506
-49.736
-53.72
-57.46
-60.965
-64.234
-67.262
-70.038
-72.551
-74.795
-76.768
-78.469
-79.901
-81.07
-81.986
-82.658
-83.095
-83.304
-83.292
-83.061
-82.614
-81.955
-81.088
-80.02
-78.761
-77.319
-75.707
-73.937
-72.023
-69.981
-67.825
-65.57
-63.23
-60.818
-58.35
-55.841
-53.305
-50.756
-48.209
-45.678
-43.179
-40.725
-38.33
-36.006
-33.767
-31.623
-29.585
-27.662
-25.863
-24.195
-22.667
-21.284
-20.052
-18.977
-18.063
-17.314
-16.731
-16.316
-16.069
-15.989
-16.073
-16.32
-16.723
-17.28
-17.986
-18.833
-19.818
-20.932
-22.17
-23.523
-24.984
-26.545
-28.197
-29.932
-31.742
-33.619
-35.554
-37.54
-39.568
-41.632
-43.724
-45.838
-47.966
-50.102
-52.241
-54.376
-56.502
-58.615
-60.708
-62.779
-64.823
-66.837
-68.817
-70.762
-72.668
-74.533
-76.356
-78.133
-79.864
-81.546
-83.178
-84.758
-86.284
-87.755
-89.167
-90.519
-91.809
-93.033
-94.189
-95.273
-96.282
-97.212
-98.059
-98.819
-99.487
-100.059
-100.529
-100.893
-101.146
-101.283
-101.3
-101.191
-100.952
-100.578
-100.066
-99.412
-98.611
-97.66
-96.557
-95.301
-93.889
-92.321
-90.598
-88.72
-86.691
-84.515
-82.195
-79.738
-77.15
-74.439
-71.614
-68.685
-65.666
-62.566
-59.4
-56.183
-52.929
-49.656
-46.378
-43.114
-39.879
-36.693
-33.573
-30.539
-27.609
-24.801
-22.131
-19.619
-17.281
-15.134
-13.194
-11.472
-9.983
-8.737
-7.747
-7.019
-6.557
-6.362
-6.431
-6.762
-7.351
-8.19
-9.272
-10.584
-12.119
-13.867
-15.819
-17.964
-20.286
-22.767
-25.385
-28.118
-30.948
-33.855
-36.817
-39.818
-42.84
-45.858
-48.847
-51.772
-54.592
-57.267
-59.753
-62.009
-63.993
-65.679
-67.057
-68.128
-68.902
-69.373
-69.516
-69.304
-68.739
-67.843
-66.672
-65.293
-63.719
-61.981
-60.157
-58.274
-56.335
-54.244
-51.69
-48.35
-44.114
-38.941
-32.882
-26.204
-19.069
-11.783
-5.132
0.136
3.611
5.108
4.982
4.077
2.937
2.288
3.572
8.211
17.476
32.291
52.442
76.954
105.139
135.865
166.99
195.981
219.835
235.741
242.161
238.048
222.135
193.962
154.181
105.14
50.354
-7.46
-65.58
-122.324
-175.567
-220.173
-252.718
-270.215
-270.347
-256.296
-231.215
-198.509
-163.558
-128.292
-94.239
-63.591
-37.044
-16.296
-2.688
4.148
5.293
2.519
-2.215
-7.302
-11.555
-13.95
-13.823
-11.053
-5.982
0.695
8.15
15.553
22.342
28.124
32.667
36.01
38.344
39.938
41.122
42.228
43.429
44.808
46.397
48.136
49.956
51.803
53.594
55.253
56.747
58.054
59.156
60.044
60.686
61.054
61.143
60.947
60.467
59.716
58.705
57.452
55.986
54.328
52.492
50.493
48.339
46.043
43.624
41.099
38.488
35.811
33.084
30.328
27.56
24.792
22.034
19.296
16.583
13.903
11.266
8.679
6.151
3.688
1.296
-1.017
-3.248
-5.394
-7.454
-9.427
-11.316
-13.122
-14.846
-16.491
-18.06
-19.556
-20.983
-22.343
-23.64
-24.877
-26.059
-27.189
-28.272
-29.311
-30.312
-31.279
-32.219
-33.137
-34.039
-34.929
-35.812
-36.695
-37.581
-38.475
-39.38
-40.299
-41.235
-42.191
-43.169
-44.17
-45.194
-46.24
-47.307
-48.393
-49.496
-50.61
-51.733
-52.86
-53.989
-55.116
-56.241
-57.362
-58.479
-59.591
-60.701
-61.806
-62.906
-64
-65.084
-66.157
-67.214
-68.249
-69.257
-70.234
-71.179
-72.095
-72.98
-73.837
-74.669
-75.478
-76.271
-77.054
-77.829
-78.595
-79.353
-80.109
-80.872
-81.66
-82.481
-83.335
-84.219
-85.126
-86.049
-86.971
-87.864
-88.682
-89.383
-89.941
-90.349
-90.617
-90.751
-90.755
-90.633
-90.385
-90.038
-89.621
-89.157
-88.654
-88.128
-87.607
-87.152
-86.859
-86.807
-87.031
-87.529
-88.264
-89.196
-90.28
-91.459
-92.654
-93.748
-94.638
-95.254
-95.56
-95.528
-95.103
-94.187
-92.639
-90.348
-87.25
-83.32
-78.565
-72.999
-66.646
-59.549
-51.793
-43.499
-34.758
-25.62
-16.095
-6.168
4.138
14.746
25.546
36.437
47.337
58.17
68.863
79.331
89.484
99.237
108.528
117.306
125.491
132.981
139.636
145.293
149.828
153.16
155.238
156.027
155.505
153.676
150.565
146.229
140.751
134.226
126.763
118.49
109.546
100.071
90.229
80.193
70.118
60.137
50.361
40.878
31.761
23.06
14.805
7.002
-0.36
-7.295
-13.835
-20.031
-25.924
-31.536
-36.888
-41.99
-46.852
-51.489
-55.904
-60.079
-63.982
-67.576
-70.814
-73.64
-76.007
-77.874
-79.195
-79.936
-80.092
-79.693
-78.809
-77.532
-75.92
-74.013
-71.871
-69.504
-66.883
-63.937
-60.507
-56.447
-51.695
-46.202
-39.913
-33.011
-25.801
-18.611
-11.987
-6.377
-2.062
0.699
1.87
2.005
1.955
2.556
4.994
10.438
19.953
34.676
55.233
81.249
111.794
145.928
182.194
218.655
252.993
282.284
303.875
316.172
317.999
308.173
286.306
252.934
210.208
161.514
109.578
57.14
5.813
-42.491
-83.03
-113.017
-129.879
-131.627
-122.026
-104.376
-82.198
-61.057
-42.268
-26.102
-13.53
-4.081
1.61
2.526
-0.536
-5.793
-11.606
-16.867
-21.071
-24.248
-26.324
-26.867
-26.047
-24.734
-23.614
-23.125
-23.433
-24.295
-25.572
-27.385
-29.617
-31.947
-34.137
-35.963
-37.322
-38.301
-38.937
-39.19
-39.071
-38.601
-37.798
-36.719
-35.401
-33.854
-32.11
-30.208
-28.193
-26.108
-23.977
-21.812
-19.619
-17.398
-15.144
-12.85
-10.507
-8.113
-5.671
-3.183
-0.652
1.924
4.547
7.219
9.944
12.727
15.57
18.472
21.429
24.432
27.471
30.534
33.609
36.682
39.743
42.78
45.782
48.738
51.637
54.465
57.211
59.86
62.399
64.813
67.087
69.206
71.158
72.929
74.509
75.888
77.055
78.003
78.725
79.216
79.472
79.491
79.27
78.811
78.116
77.187
76.032
74.656
73.07
71.284
69.309
67.159
64.85
62.398
59.819
57.131
54.354
51.507
48.61
45.684
42.75
39.83
36.944
34.115
31.361
28.702
26.156
23.742
21.474
19.369
17.437
15.69
14.135
12.781
11.633
10.696
9.968
9.447
9.134
9.03
9.129
9.43
9.915
10.562
11.365
12.317
13.38
14.521
15.709
16.905
18.104
19.314
20.495
21.596
22.674
23.801
24.9
25.955
26.967
27.715
28.723
30.5
32.283
33.831
33.754
30.394
25.571
20.496
16.979
17.509
19.884
22.241
23.305
20.969
16.752
12.196
7.653
4.071
0.92
-2.479
-5.977
-9.646
-13.422
-17.144
-20.885
-24.702
-28.551
-32.409
-36.267
-40.105
-43.9
-47.634
-51.277
-54.799
-58.192
-61.448
-64.554
-67.499
-70.276
-72.875
-75.293
-77.527
-79.573
-81.427
-83.089
-84.56
-85.84
-86.931
-87.838
-88.564
-89.117
-89.503
-89.729
-89.805
-89.736
-89.533
-89.202
-88.75
-88.184
-87.509
-86.731
-85.857
-84.891
-83.841
-82.712
-81.508
-80.238
-78.905
-77.514
-76.065
-74.559
-72.994
-71.369
-69.68
-67.921
-66.086
-64.166
-62.154
-60.047
-57.838
-55.519
-53.081
-50.515
-47.814
-44.979
-42.004
-38.88
-35.599
-32.158
-28.56
-24.822
-20.956
-16.966
-12.859
-8.639
-4.309
0.123
4.668
9.364
14.248
19.36
24.722
30.32
36.152
42.218
48.512
55.049
61.822
68.797
75.973
83.356
90.92
98.635
106.398
114.019
121.341
128.18
134.33
139.744
144.427
148.457
152.078
155.462
158.681
161.94
165.44
169.073
172.586
175.408
176.687
176.072
173.567
169.083
162.588
154.324
144.906
135.769
128.915
125.626
126.623
132.671
144.543
163.023
188.408
219.649
254.72
292.089
330.481
368.185
403.019
432.149
452.833
463.575
463.723
452.281
428.414
392.884
348.063
297.198
243.42
187.247
127.809
67.001
9.684
-36.495
-64.114
-71.003
-60.76
-41.325
-20.776
-4.188
6.936
14.626
20.874
26.283
30.793
33.508
34.354
34.494
35.19
37.251
40.837
45.639
51.222
57.259
63.442
69.319
74.4
78.43
81.37
83.318
84.474
84.98
84.906
84.377
83.538
82.522
81.474
80.477
79.544
78.692
77.941
77.305
76.804
76.426
76.119
75.833
75.524
75.151
74.69
74.107
73.354
72.378
71.124
69.553
67.647
65.393
62.782
59.806
56.463
52.762
48.731
44.391
39.76
34.855
29.688
24.28
18.658
12.847
6.873
0.76
-5.472
-11.798
-18.194
-24.637
-31.107
-37.584
-44.049
-50.481
-56.859
-63.16
-69.361
-75.439
-81.375
-87.147
-92.734
-98.118
-103.282
-108.21
-112.888
-117.303
-121.443
-125.298
-128.858
-132.118
-135.072
-137.716
-140.049
-142.073
-143.79
-145.205
-146.326
-147.161
-147.721
-148.018
-148.068
-147.886
-147.491
-146.901
-146.138
-145.224
-144.182
-143.037
-141.814
-140.538
-139.236
-137.934
-136.659
-135.438
-134.297
-133.261
-132.356
-131.605
-131.033
-130.661
-130.511
-130.603
-130.954
-131.582
-132.501
-133.724
-135.262
-137.123
-139.313
-141.838
-144.697
-147.891
-151.417
-155.269
-159.44
-163.921
-168.699
-173.761
-179.09
-184.671
-190.482
-196.505
-202.717
-209.095
-215.615
-222.252
-228.982
-235.776
-242.611
-249.458
-256.291
-263.084
-269.811
-276.446
-282.964
-289.34
-295.553
-301.578
-307.397
-312.988
-318.334
-323.419
-328.228
-332.747
-336.964
-340.871
-344.458
-347.72
-350.65
-353.247
-355.507
-357.43
-359.017
-360.269
-361.188
-361.78
-362.048
-361.998
-361.636
-360.969
-360.006
-358.754
-357.221
-355.418
-353.352
-351.035
-348.474
-345.68
-342.663
-339.431
-335.994
-332.362
-328.543
-324.545
-320.377
-316.046
-311.559
-306.923
-302.143
-297.227
-292.178
-287.004
-281.71
-276.303
-270.787
-265.172
-259.461
-253.664
-247.787
-241.837
-235.821
-229.747
-223.622
-217.453
-211.248
-205.016
-198.763
-192.499
-186.232
-179.971
-173.723
-167.499
-161.304
-155.147
-149.036
-142.979
-136.981
-131.051
-125.195
-119.421
-113.737
-108.149
-102.661
-97.279
-92.003
-86.832
-81.765
-76.801
-71.935
-67.164
-62.481
-57.884
-53.377
-48.959
-44.63
-40.391
-36.238
-32.172
-28.197
-24.31
-20.501
-16.769
-13.107
-9.501
-5.95
-2.44
1.046
4.514
7.986
11.492
15.054
18.7
22.453
26.33
30.358
34.552
38.918
43.454
48.13
52.883
57.647
62.346
66.933
71.382
75.612
79.587
83.319
86.866
90.455
94.282
98.343
102.636
107.147
111.654
116.028
120.044
123.022
124.41
124.014
121.691
117.759
113.085
108.181
103.747
101.327
102.38
108.25
120.339
138.314
160.333
185.5
212.596
241.42
273.96
309.266
343.985
371.948
383.18
371.423
335.911
281.895
220.233
159.309
103.88
55.171
11.431
-26.287
-55.596
-74.811
-82.255
-78.641
-66.542
-48.174
-26.251
-3.98
16.545
33.98
47.439
57.053
63.481
67.31
69.546
71.559
74.108
77.514
81.911
87.002
92.428
97.955
103.163
107.542
110.88
113.15
114.437
114.996
115.017
114.614
113.97
113.278
112.671
112.257
112.086
112.143
112.446
113.029
113.906
115.091
116.573
118.319
120.303
122.51
124.916
127.499
130.229
133.073
136.014
139.047
142.176
145.411
148.761
152.232
155.835
159.585
163.496
167.581
171.849
176.302
180.947
185.791
190.837
196.092
201.552
207.211
213.06
219.087
225.28
231.622
238.096
244.679
251.352
258.094
264.886
271.707
278.537
285.353
292.133
298.856
305.5
312.042
318.458
324.728
330.831
336.746
342.456
347.945
353.196
358.195
362.932
367.395
371.574
375.464
379.056
382.346
385.332
388.013
390.39
392.463
394.238
395.719
396.913
397.829
398.474
398.86
398.996
398.896
398.571
398.036
397.303
396.387
395.303
394.064
392.687
391.184
389.571
387.861
386.066
384.199
382.27
380.289
378.265
376.207
374.121
372.013
369.887
367.748
365.598
363.438
361.269
359.09
356.899
354.693
352.468
350.22
347.943
345.63
343.274
340.868
338.402
335.87
333.26
330.565
327.774
324.879
321.869
318.738
315.475
312.074
308.527
304.83
300.976
296.962
292.785
288.443
283.936
279.264
274.427
269.43
264.277
258.971
253.52
247.932
242.214
236.378
230.433
224.391
218.267
212.072
205.823
199.534
193.223
186.907
180.604
174.331
168.109
161.955
155.889
149.93
144.096
138.405
132.874
127.519
122.356
117.399
112.661
108.155
103.89
99.877
96.122
92.631
89.41
86.46
83.784
81.38
79.247
77.381
75.778
74.431
73.332
72.471
71.837
71.417
71.195
71.154
71.276
71.541
71.927
72.413
72.975
73.589
74.232
74.879
75.505
76.085
76.597
77.014
77.315
77.476
77.474
77.29
76.903
76.296
75.451
74.355
72.993
71.353
69.423
67.196
64.662
61.816
58.653
55.168
51.361
47.237
42.803
38.071
33.053
27.761
22.212
16.425
10.42
4.218
-2.168
-8.722
-15.428
-22.266
-29.21
-36.235
-43.32
-50.446
-57.593
-64.736
-71.849
-78.901
-85.87
-92.738
-99.481
-106.07
-112.462
-118.604
-124.451
-129.969
-135.133
-139.924
-144.322
-148.303
-151.849
-154.962
-157.666
-160.013
-162.064
-163.853
-165.405
-166.728
-167.87
-168.957
-170.069
-171.152
-172.036
-172.51
-172.476
-172.059
-171.399
-170.397
-168.935
-167.088
-165.259
-164.113
-164.077
-164.992
-166.34
-167.806
-169.276
-170.439
-170.395
-167.689
-160.982
-149.702
-134.179
-114.822
-91.742
-65.44
-37.359
-9.851
14.275
32.667
43.911
46.644
39.324
21.024
-7.42
-43.32
-84.168
-127.722
-172.864
-219.756
-264.624
-302.139
-328.743
-339.832
-335.418
-319.053
-292.082
-258.92
-225.014
-194.849
-174.278
-165.536
-166.092
-170.525
-172.869
-169.809
-161.418
-150.765
-140.662
-132.066
-124.821
-117.869
-110.705
-103.81
-97.783
-92.95
-89.29
-86.547
-84.415
-82.744
-81.413
-80.215
-79.005
-77.71
-76.28
-74.724
-73.072
-71.297
-69.389
-67.362
-65.21
-62.949
-60.615
-58.226
-55.821
-53.445
-51.138
-48.95
-46.91
-45.03
-43.317
-41.767
-40.37
-39.117
-37.997
-36.987
-36.076
-35.253
-34.502
-33.816
-33.18
-32.578
-31.993
-31.411
-30.816
-30.202
-29.562
-28.892
-28.19
-27.458
-26.698
-25.917
-25.118
-24.305
-23.483
-22.654
-21.823
-20.996
-20.179
-19.379
-18.603
-17.859
-17.157
-16.509
-15.924
-15.412
-14.983
-14.647
-14.412
-14.289
-14.284
-14.406
-14.662
-15.059
-15.604
-16.302
-17.158
-18.177
-19.359
-20.707
-22.22
-23.897
-25.735
-27.73
-29.878
-32.172
-34.606
-37.175
