Name
Date of Birth,"Dec 28, 2003"
Recorded Date,2024-09-19 10:07:48 -0500
Classification,Poor Recording
Symptoms,
Software Version,1.90
Device,"Watch4,4"
Sample Rate,512.711 hertz


Lead,Lead I
Unit,µV

37.883
43.442
49.121
54.895
60.738
66.622
72.519
78.4
84.233
89.989
95.637
101.145
106.484
111.622
116.53
121.18
125.543
129.593
133.306
136.656
139.623
142.187
144.329
146.032
147.284
148.073
148.39
148.228
147.585
146.458
144.85
142.765
140.211
137.196
133.734
129.838
125.525
120.815
115.727
110.285
104.512
98.433
92.076
85.467
78.634
71.607
64.413
57.083
49.644
42.125
34.556
26.963
19.373
11.813
4.307
-3.119
-10.443
-17.645
-24.703
-31.6
-38.319
-44.846
-51.169
-57.277
-63.162
-68.816
-74.236
-79.419
-84.365
-89.073
-93.549
-97.794
-101.816
-105.621
-109.217
-112.614
-115.821
-118.848
-121.706
-124.407
-126.961
-129.38
-131.676
-133.859
-135.941
-137.933
-139.846
-141.689
-143.473
-145.207
-146.9
-148.558
-150.191
-151.803
-153.4
-154.987
-156.568
-158.144
-159.718
-161.29
-162.861
-164.428
-165.99
-167.545
-169.089
-170.619
-172.13
-173.62
-175.082
-176.514
-177.91
-179.267
-180.58
-181.847
-183.064
-184.229
-185.338
-186.389
-187.382
-188.313
-189.183
-189.989
-190.73
-191.407
-192.019
-192.565
-193.046
-193.46
-193.809
-194.093
-194.311
-194.464
-194.552
-194.575
-194.533
-194.426
-194.253
-194.013
-193.705
-193.327
-192.876
-192.349
-191.741
-191.047
-190.262
-189.377
-188.384
-187.275
-186.038
-184.663
-183.139
-181.452
-179.59
-177.54
-175.29
-172.824
-170.131
-167.196
-164.007
-160.55
-156.814
-152.786
-148.457
-143.816
-138.854
-133.565
-127.941
-121.977
-115.67
-109.015
-102.011
-94.658
-86.957
-78.911
-70.527
-61.811
-52.773
-43.427
-33.786
-23.869
-13.693
-3.28
7.347
18.164
29.145
40.263
51.49
62.795
74.148
85.517
96.869
108.171
119.389
130.493
141.449
152.226
162.796
173.129
183.197
192.973
202.43
211.54
220.28
228.624
236.55
244.037
251.067
257.626
263.702
269.284
274.368
278.952
283.034
286.617
289.703
292.296
294.404
296.036
297.201
297.908
298.168
297.995
297.406
296.418
295.052
293.329
291.271
288.903
286.249
283.333
280.179
276.812
273.25
269.516
265.639
261.654
257.612
253.555
249.517
245.533
241.624
237.799
234.055
230.362
226.68
222.978
219.232
215.432
211.596
207.748
203.899
200.059
196.19
192.235
188.162
183.946
179.571
175.07
170.514
166.009
161.753
157.968
154.745
152.075
149.812
147.658
145.382
142.838
139.829
136.236
132.246
128.265
124.978
123.341
123.943
127.103
133.174
142.073
153.108
165.184
176.7
185.775
190.931
190.64
183.096
167.287
143.776
114.477
81.56
46.566
8.957
-32.103
-74.529
-113.751
-142.799
-155.597
-149.789
-127.176
-93.431
-53.899
-14.633
19.252
45.734
61.496
66.64
64.631
57.491
49.44
42.715
35.626
28.047
19.593
10.37
2.77
-1.978
-3.972
-3.456
-1.32
1.464
4.632
7.975
11.008
13.532
15.497
16.874
17.922
18.993
20.198
21.588
23.22
25.02
26.939
28.944
30.903
32.702
34.295
35.657
36.813
37.816
38.694
39.473
40.182
40.828
41.423
41.976
42.488
42.963
43.406
43.825
44.236
44.653
45.087
45.548
46.043
46.574
47.15
47.774
48.45
49.186
49.989
50.866
51.826
52.877
54.024
55.275
56.635
58.109
59.698
61.401
63.217
65.143
67.174
69.303
71.522
73.822
76.193
78.624
81.106
83.624
86.167
88.72
91.266
93.79
96.274
98.698
101.043
103.29
105.417
107.404
109.231
110.878
112.325
113.551
114.537
115.265
115.715
115.871
115.717
115.238
114.421
113.256
111.733
109.844
107.585
104.951
101.941
98.555
94.794
90.663
86.169
81.318
76.122
70.593
64.746
58.599
52.169
45.48
38.553
31.414
24.089
16.607
8.996
1.289
-6.484
-14.29
-22.096
-29.868
-37.573
-45.177
-52.647
-59.951
-67.056
-73.932
-80.548
-86.877
-92.89
-98.561
-103.867
-108.784
-113.292
-117.374
-121.011
-124.192
-126.905
-129.142
-130.897
-132.166
-132.951
-133.254
-133.081
-132.44
-131.343
-129.805
-127.842
-125.474
-122.722
-119.611
-116.167
-112.417
-108.391
-104.12
-99.635
-94.968
-90.154
-85.226
-80.219
-75.165
-70.1
-65.057
-60.068
-55.166
-50.381
-45.745
-41.284
-37.027
-32.998
-29.22
-25.714
-22.499
-19.591
-17.004
-14.748
-12.833
-11.264
-10.044
-9.172
-8.647
-8.464
-8.614
-9.087
-9.871
-10.95
-12.308
-13.925
-15.782
-17.855
-20.123
-22.56
-25.143
-27.847
-30.646
-33.517
-36.434
-39.372
-42.309
-45.219
-48.08
-50.87
-53.567
-56.152
-58.607
-60.914
-63.059
-65.028
-66.812
-68.401
-69.788
-70.966
-71.932
-72.682
-73.216
-73.535
-73.644
-73.548
-73.255
-72.777
-72.123
-71.304
-70.332
-69.217
-67.967
-66.591
-65.093
-63.484
-61.772
-59.968
-58.084
-56.133
-54.13
-52.091
-50.031
-47.966
-45.912
-43.884
-41.903
-39.987
-38.156
-36.427
-34.813
-33.322
-31.958
-30.719
-29.6
-28.592
-27.677
-26.828
-26.019
-25.221
-24.402
-23.526
-22.532
-21.375
-20.033
-18.499
-16.817
-15.043
-13.228
-11.463
-9.865
-8.466
-7.242
-6.104
-4.867
-3.415
-1.716
0.338
2.788
5.401
7.738
9.101
8.702
6.073
0.954
-6.973
-17.829
-31.236
-46.227
-61.166
-74.333
-84.463
-90.406
-90.921
-84.85
-71.555
-51.496
-26.178
2.806
33.931
65.248
94.329
118.153
133.842
139.811
135.149
118.732
90.022
49.325
-1.405
-58.073
-117.417
-177.428
-236.801
-295.107
-348.567
-391.285
-418.439
-425.267
-412.573
-386.25
-351.92
-316.646
-284.512
-255.254
-229.428
-207.286
-189.517
-178.077
-173.33
-174.021
-178.427
-184.498
-190.391
-194.962
-197.278
-196.627
-192.871
-186.395
-177.91
-168.303
-158.527
-149.204
-140.757
-133.501
-127.448
-122.447
-118.269
-114.556
-110.922
-107.171
-103.204
-98.971
-94.527
-89.919
-85.174
-80.376
-75.598
-70.867
-66.202
-61.6
-57.054
-52.582
-48.201
-43.912
-39.718
-35.605
-31.558
-27.562
-23.584
-19.585
-15.529
-11.394
-7.18
-2.888
1.494
5.975
10.564
15.27
20.082
25.012
30.094
35.357
40.832
46.526
52.413
58.472
64.682
71.039
77.573
84.289
91.17
98.219
105.446
112.871
120.538
128.423
136.434
144.493
152.515
160.45
168.288
176.001
183.55
190.89
197.956
204.705
211.128
217.176
222.776
227.851
232.294
236.088
239.311
242.019
244.264
246.079
247.454
248.409
248.991
249.23
249.152
248.774
248.09
247.135
245.98
244.696
243.372
242.034
240.633
239.142
237.548
235.841
234.039
232.138
230.111
227.955
225.691
223.337
220.92
218.443
215.878
213.204
210.393
207.443
204.382
201.223
197.972
194.635
191.208
187.695
184.112
180.455
176.701
172.831
168.823
164.665
160.354
155.885
151.249
146.435
141.43
136.223
130.808
125.176
119.319
113.229
106.898
100.323
93.51
86.464
79.189
71.693
63.983
56.068
47.961
39.675
31.222
22.615
13.87
5.004
-3.964
-13.013
-22.123
-31.274
-40.444
-49.61
-58.749
-67.838
-76.857
-85.782
-94.592
-103.267
-111.784
-120.125
-128.272
-136.206
-143.911
-151.37
-158.57
-165.495
-172.136
-178.481
-184.519
-190.242
-195.643
-200.718
-205.461
-209.871
-213.944
-217.682
-221.084
-224.152
-226.891
-229.304
-231.398
-233.177
-234.651
-235.827
-236.715
-237.324
-237.665
-237.748
-237.584
-237.185
-236.564
-235.734
-234.706
-233.493
-232.11
-230.572
-228.891
-227.086
-225.17
-223.161
-221.078
-218.94
-216.764
-214.569
-212.372
-210.19
-208.041
-205.942
-203.905
-201.944
-200.076
-198.315
-196.679
-195.184
-193.843
-192.67
-191.681
-190.894
-190.326
-189.99
-189.892
-190.041
-190.446
-191.122
-192.09
-193.356
-194.916
-196.763
-198.886
-201.272
-203.907
-206.758
-209.772
-212.903
-216.11
-219.367
-222.659
-225.961
-229.236
-232.445
-235.553
-238.549
-241.452
-244.278
-247.039
-249.758
-252.479
-255.277
-258.263
-261.52
-265.106
-269.055
-273.385
-278.132
-283.325
-288.988
-295.126
-301.709
-308.691
-315.99
-323.491
-331.077
-338.623
-345.911
-352.642
-358.449
-362.861
-365.567
-366.46
-365.423
-362.341
-357.174
-349.96
-341.131
-331.59
-321.981
-312.465
-302.931
-293.064
-282.676
-271.718
-259.57
-244.74
-225.877
-202.316
-174.152
-142.281
-107.534
-70.439
-32.144
4.923
37.798
63.783
80.867
87.969
84.056
67.859
38.56
-2.499
-51.869
-106.885
-165.283
-226.126
-290.377
-354.066
-410.625
-454.752
-479.409
-484.481
-475.159
-455.311
-433.214
-413.648
-397.36
-386.497
-377.975
-369.527
-361.103
-350.778
-339.792
-329.038
-317.714
-306.429
-294.788
-282.342
-269.692
-257.103
-244.956
-233.94
-224.516
-216.947
-211.448
-208.013
-206.473
-206.708
-208.564
-211.798
-216.122
-221.178
-226.604
-232.164
-237.71
-243.136
-248.372
-253.313
-257.85
-261.91
-265.398
-268.253
-270.451
-271.964
-272.799
-273.02
-272.72
-272.056
-271.216
-270.322
-269.455
-268.664
-267.958
-267.357
-266.883
-266.534
-266.312
-266.223
-266.257
-266.417
-266.701
-267.075
-267.492
-267.881
-268.147
-268.218
-268.045
-267.586
-266.817
-265.717
-264.266
-262.456
-260.289
-257.76
-254.861
-251.583
-247.91
-243.839
-239.371
-234.515
-229.285
-223.697
-217.763
-211.501
-204.926
-198.056
-190.907
-183.496
-175.837
-167.95
-159.858
-151.588
-143.17
-134.635
-126.016
-117.346
-108.662
-100
-91.395
-82.882
-74.496
-66.27
-58.237
-50.432
-42.884
-35.624
-28.679
-22.077
-15.842
-9.997
-4.561
0.446
5.009
9.117
12.757
15.925
18.615
20.829
22.569
23.841
24.655
25.022
24.959
24.484
23.619
22.388
20.816
18.933
16.771
14.364
11.746
8.954
6.025
2.996
-0.092
-3.203
-6.3
-9.347
-12.309
-15.155
-17.853
-20.374
-22.69
-24.777
-26.608
-28.159
-29.408
-30.334
-30.921
-31.154
-31.023
-30.524
-29.656
-28.425
-26.842
-24.918
-22.665
-20.098
-17.231
-14.083
-10.674
-7.02
-3.142
0.935
5.178
9.541
13.98
18.469
22.986
27.518
32.065
36.617
41.171
45.739
50.323
54.909
59.472
63.953
68.29
72.447
76.404
80.163
83.728
87.066
90.144
92.933
95.386
97.472
99.138
100.277
100.812
100.725
100.037
98.839
97.244
95.312
93.095
90.651
88.045
85.384
82.761
80.23
77.857
75.711
73.905
72.633
72.06
72.252
73.227
74.933
77.296
80.312
83.95
88.122
92.707
97.572
102.618
107.817
113.144
118.548
123.925
129.108
133.958
138.425
142.485
146.147
149.415
152.238
154.62
156.661
158.504
160.281
162.076
163.908
165.783
167.744
169.865
172.231
174.906
177.898
181.221
184.898
188.976
193.523
198.557
204.017
209.8
215.822
222.033
228.416
234.963
241.629
248.363
255.135
261.937
268.776
275.647
282.52
289.342
296.061
302.652
309.121
315.5
321.792
327.981
334.045
339.959
345.725
351.357
356.848
362.167
367.296
372.227
376.97
381.559
385.993
390.239
394.267
398.045
401.573
404.898
408.051
411.059
413.929
416.635
419.168
421.532
423.685
425.54
427.002
427.944
428.322
428.193
427.605
426.604
425.193
423.303
420.908
418.023
414.689
410.977
406.951
402.654
398.253
394.083
390.45
387.611
385.61
384.19
383.098
382.198
381.379
380.484
379.471
378.54
378.212
379.496
383.457
390.723
401.596
416.231
434.332
454.912
476.4
496.419
512.288
522.082
524.271
517.208
499.729
471.49
433.061
387.087
337.552
287.348
238.557
191.438
144.955
100.052
59.927
31.49
22.334
37.194
76.638
132.461
193.356
247.812
284.663
301.697
301.243
288.256
271.911
256.799
244.127
233.998
223.474
211.57
199.673
189.09
181.472
177.318
175.734
175.627
175.992
176.28
176.177
175.475
174.127
172.144
169.715
167.195
164.899
162.988
161.536
160.541
159.951
159.747
159.873
160.225
160.69
161.174
161.642
162.101
162.574
163.076
163.607
164.166
164.761
165.411
166.125
166.902
167.729
168.587
169.464
170.352
171.247
172.143
173.031
173.897
174.734
175.534
176.29
176.993
177.635
178.201
178.681
179.067
179.352
179.533
179.606
179.568
179.418
179.154
178.776
178.282
177.669
176.933
176.07
175.077
173.951
172.69
171.291
169.755
168.081
166.269
164.321
162.236
160.016
157.66
155.168
152.54
149.775
146.873
143.833
140.655
137.338
133.882
130.287
126.552
122.677
118.66
114.502
110.201
105.757
101.169
96.438
91.565
86.552
81.402
76.117
70.701
65.158
59.494
53.713
47.822
41.827
35.734
29.552
23.289
16.955
10.558
4.111
-2.376
-8.89
-15.419
-21.95
-28.469
-34.962
-41.417
-47.818
-54.151
-60.404
-66.561
-72.61
-78.536
-84.328
-89.974
-95.462
-100.782
-105.924
-110.882
-115.647
-120.214
-124.578
-128.736
-132.686
-136.427
-139.959
-143.285
-146.408
-149.332
-152.064
-154.612
-156.984
-159.192
-161.245
-163.159
-164.944
-166.618
-168.193
-169.687
-171.116
-172.496
-173.843
-175.175
-176.507
-177.856
-179.238
-180.666
-182.155
-183.718
-185.366
-187.109
-188.958
-190.918
-192.996
-195.197
-197.523
-199.975
-202.553
-205.255
-208.076
-211.012
-214.054
-217.193
-220.42
-223.721
-227.083
-230.492
-233.931
-237.384
-240.832
-244.257
-247.639
-250.961
-254.203
-257.346
-260.371
-263.26
-265.994
-268.557
-270.933
-273.107
-275.067
-276.8
-278.296
-279.548
-280.548
-281.293
-281.78
-282.007
-281.975
-281.687
-281.147
-280.36
-279.335
-278.081
-276.609
-274.933
-273.066
-271.026
-268.829
-266.492
-264.033
-261.472
-258.826
-256.115
-253.357
-250.569
-247.771
-244.98
-242.213
-239.487
-236.819
-234.226
-231.721
-229.316
-227.018
-224.834
-222.777
-220.847
-219.035
-217.335
-215.737
-214.241
-212.861
-211.597
-210.426
-209.353
-208.411
-207.619
-206.999
-206.544
-206.19
-205.911
-205.747
-205.636
-205.37
-204.897
-204.269
-203.453
-202.647
-201.467
-198.683
-194.521
-190.106
-187.25
-189.417
-196.462
-204.884
-211.223
-210.563
-202.496
-191.699
-181.798
-176.676
-177.1
-179.591
-181.989
-182.85
-181.712
-180.01
-178.432
-176.958
-175.669
-174.371
-173.025
-171.84
-170.892
-170.15
-169.606
-169.233
-168.985
-168.829
-168.742
-168.699
-168.697
-168.752
-168.863
-169.027
-169.251
-169.54
-169.889
-170.26
-170.625
-171.002
-171.459
-172.145
-173.232
-174.832
-177.052
-180.005
-183.696
-188.058
-192.934
-197.988
-202.914
-207.517
-211.55
-214.901
-217.749
-220.373
-223.289
-227.204
-232.501
-239.459
-248.455
-259.42
-271.793
-284.661
-296.479
-305.51
-310.492
-310.06
-302.701
-287.573
-264.417
-233.799
-197.383
-157.046
-114.619
-72.683
-34.352
-2.481
20.338
32.506
33.506
22.764
0.1
-33.238
-74.923
-122.051
-171.237
-219.682
-265.115
-304.495
-334.919
-354.861
-363.836
-362.354
-351.922
-333.878
-309.485
-281.33
-252.414
-225.044
-201.117
-181.653
-166.743
-156.674
-151.811
-151.369
-154.017
-158.486
-163.358
-167.9
-172.018
-175.296
-177.148
-177.51
-176.61
-174.894
-173.138
-171.654
-170.355
-169.349
-168.819
-168.875
-169.597
-170.845
-172.238
-173.572
-174.816
-175.938
-176.956
-177.856
-178.569
-179.118
-179.6
-180.105
-180.706
-181.422
-182.213
-183.046
-183.9
-184.755
-185.598
-186.398
-187.114
-187.717
-188.187
-188.516
-188.699
-188.726
-188.574
-188.218
-187.632
-186.796
-185.696
-184.315
-182.637
-180.646
-178.325
-175.668
-172.672
-169.331
-165.639
-161.591
-157.179
-152.399
-147.249
-141.726
-135.829
-129.559
-122.919
-115.914
-108.555
-100.851
-92.813
-84.456
-75.792
-66.837
-57.606
-48.116
-38.383
-28.425
-18.263
-7.915
2.595
13.244
24.009
34.864
45.782
56.737
67.703
78.651
89.555
100.388
111.12
121.726
132.176
142.444
152.504
162.329
171.893
181.173
190.146
198.793
207.094
215.031
222.589
229.754
236.513
242.856
248.774
254.259
259.307
263.913
268.077
271.799
275.082
277.931
280.353
282.357
283.955
285.16
285.986
286.451
286.574
286.375
285.876
285.099
284.07
282.813
281.354
279.719
277.935
276.029
274.026
271.951
269.831
267.689
265.548
263.431
261.357
259.348
257.42
255.591
253.875
252.285
250.832
249.526
248.375
247.384
246.556
245.892
245.392
245.053
244.869
244.835
244.941
245.176
245.528
245.982
246.525
247.138
247.805
248.508
249.228
249.945
250.642
251.3
251.899
252.424
252.856
253.179
253.379
253.443
253.356
253.11
252.693
252.099
251.319
250.35
249.189
247.832
246.281
244.537
242.604
240.487
238.192
235.728
233.105
230.336
227.432
224.408
221.28
218.063
214.775
211.432
208.054
204.657
201.26
197.88
194.535
191.24
188.012
184.865
181.814
178.871
176.047
173.353
170.797
168.387
166.13
164.031
162.094
160.324
158.72
157.285
156.018
154.917
153.979
153.199
152.572
152.092
151.75
151.538
151.446
151.465
151.584
151.791
152.076
152.426
152.829
153.273
153.747
154.238
154.736
155.231
155.714
156.175
156.609
157.006
157.362
157.67
157.925
158.12
158.249
158.307
158.287
158.185
157.996
157.716
157.341
156.868
156.295
155.621
154.842
153.958
152.966
151.864
150.65
149.324
147.883
146.329
144.662
142.885
140.997
139.001
136.898
134.685
132.362
129.925
127.372
124.703
121.916
119.014
115.999
112.878
109.658
106.346
102.952
99.479
95.935
92.324
88.648
84.913
81.123
77.281
73.389
69.448
65.455
61.411
57.315
53.169
48.979
44.756
40.51
36.26
32.025
27.824
23.685
19.632
15.691
11.907
8.324
4.999
2.005
-0.596
-2.765
-4.485
-5.779
-6.704
-7.305
-7.659
-7.87
-7.955
-7.87
-7.511
-6.696
-5.304
-3.311
-0.734
2.396
5.797
8.989
11.437
12.535
11.883
9.377
5.068
-0.928
-8.022
-15.183
-21.381
-25.471
-26.499
-23.898
-17.059
-5.319
11.324
32.309
56.982
84.428
113.807
144.273
174.139
201.198
223.683
240.13
249.277
249.933
240.562
220.254
190.494
154.344
114.464
73.154
30.072
-16.154
-62.817
-105.418
-137.069
-149.141
-139.221
-109.943
-67.876
-24.556
12.005
38.48
54.806
65.681
73.862
80.305
85.687
88.531
89.496
89.686
88.862
88.119
87.884
87.921
88.739
89.779
89.753
88.214
84.989
80.139
74.182
67.341
59.54
50.999
42.117
33.197
24.51
16.163
8.107
0.408
-6.755
-13.204
-18.824
-23.582
-27.51
-30.678
-33.153
-35.011
-36.373
-37.349
-38.012
-38.413
-38.567
-38.458
-38.084
-37.456
-36.591
-35.541
-34.357
-33.068
-31.701
-30.26
-28.728
-27.081
-25.272
-23.256
-21.007
-18.515
-15.785
-12.841
-9.708
-6.414
-2.994
0.526
4.126
7.784
11.486
15.212
18.939
22.64
26.28
29.827
33.249
36.519
39.611
42.506
45.188
47.645
49.871
51.861
53.612
55.117
56.374
57.378
58.129
58.627
58.872
58.868
58.619
58.135
57.426
56.505
55.385
54.081
52.609
50.985
49.229
47.357
45.388
43.342
41.237
39.093
36.932
34.774
32.64
30.549
28.52
26.572
24.722
22.985
21.374
19.903
18.581
17.419
16.424
15.603
14.961
14.502
14.229
14.141
14.239
14.519
14.976
15.605
16.397
17.344
18.436
19.661
21.006
22.458
24.002
25.621
27.301
29.022
30.766
32.515
34.249
35.95
37.597
39.173
40.657
42.033
43.282
44.387
45.334
46.106
46.691
47.074
47.244
47.192
46.907
46.382
45.612
44.589
43.312
41.778
39.985
37.934
35.627
33.067
30.259
27.209
23.923
20.412
16.686
12.754
8.632
4.331
-0.134
-4.746
-9.491
-14.35
-19.309
-24.347
-29.45
-34.598
-39.774
-44.963
-50.146
-55.309
-60.437
-65.514
-70.527
-75.464
-80.313
-85.063
-89.705
-94.229
-98.627
-102.893
-107.022
-111.008
-114.85
-118.544
-122.089
-125.487
-128.737
-131.843
-134.807
-137.632
-140.324
-142.888
-145.33
-147.655
-149.871
-151.983
-153.999
-155.924
-157.763
-159.523
-161.207
-162.819
-164.361
-165.836
-167.244
-168.585
-169.859
-171.063
-172.195
-173.251
-174.226
-175.114
-175.909
-176.603
-177.188
-177.655
-177.996
-178.2
-178.258
-178.159
-177.893
-177.449
-176.817
-175.987
-174.946
-173.686
-172.198
-170.474
-168.507
-166.292
-163.825
-161.105
-158.131
-154.905
-151.431
-147.713
-143.758
-139.573
-135.168
-130.556
-125.748
-120.758
-115.603
-110.3
-104.867
-99.325
-93.694
-87.994
-82.245
-76.467
-70.681
-64.908
-59.17
-53.485
-47.873
-42.357
-36.956
-31.691
-26.579
-21.637
-16.877
-12.307
-7.935
-3.763
0.208
3.978
7.549
10.923
14.1
17.078
19.855
22.426
24.793
26.959
28.929
30.709
32.303
33.711
34.935
35.979
36.846
37.543
38.074
38.439
38.648
38.723
38.697
38.619
38.526
38.432
38.356
38.317
38.342
38.476
38.722
39.037
39.364
39.624
39.755
39.752
39.567
39.085
38.249
37.029
35.496
33.894
32.396
31.034
29.789
28.602
27.268
25.552
23.061
19.096
13.014
4.328
-7.158
-21.228
-37.195
-54.085
-70.737
-85.627
-97.094
-103.492
-103.536
-96.657
-83.176
-64.053
-40.591
-14.688
11.119
33.906
50.758
59.087
57.008
43.142
16.277
-23.144
-72.631
-129.476
-190.578
-254.762
-323.339
-394.424
-463.574
-523.183
-562.698
-577
-565.611
-531.66
-483.282
-427.249
-369.945
-319.388
-280.344
-255.433
-244.157
-240.572
-239.162
-237.109
-233.857
-231.904
-232.985
-236.196
-239.571
-240.863
-238.896
-233.854
-226.468
-217.554
-207.812
-198.053
-189.002
-181.011
-174.204
-168.475
-163.575
-159.346
-155.596
-152
-148.346
-144.55
-140.608
-136.636
-132.749
-128.993
-125.419
-122.095
-119.058
-116.351
-114.006
-112.006
-110.335
-108.98
-107.924
-107.157
-106.663
-106.409
-106.359
-106.48
-106.748
-107.146
-107.66
-108.272
-108.961
-109.708
-110.491
-111.292
-112.1
-112.9
-113.679
-114.425
-115.13
-115.793
-116.414
-116.994
-117.53
-118.018
-118.458
-118.847
-119.187
-119.478
-119.722
-119.919
-120.076
-120.197
-120.288
-120.353
-120.397
-120.421
-120.429
-120.422
-120.399
-120.36
-120.303
-120.226
-120.125
-119.998
-119.838
-119.641
-119.398
-119.103
-118.746
-118.319
-117.812
-117.214
-116.517
-115.708
-114.778
-113.717
-112.514
-111.162
-109.649
-107.969
-106.114
-104.076
-101.852
-99.435
-96.824
-94.017
-91.014
-87.817
-84.431
-80.861
-77.114
-73.2
-69.131
-64.919
-60.58
-56.129
-51.586
-46.97
-42.301
-37.601
-32.893
-28.201
-23.549
-18.961
-14.463
-10.08
-5.835
-1.753
2.141
5.826
9.279
12.479
15.408
18.048
20.384
22.402
24.09
25.44
26.445
27.1
27.403
27.356
26.962
26.227
25.159
23.771
22.076
20.089
17.831
15.32
12.579
9.633
6.506
3.226
-0.178
-3.68
-7.248
-10.853
-14.465
-18.053
-21.588
-25.04
-28.382
-31.587
-34.628
-37.481
-40.125
-42.538
-44.703
-46.603
-48.225
-49.557
-50.592
-51.324
-51.749
-51.87
-51.688
-51.209
-50.444
-49.403
-48.1
-46.552
-44.779
-42.801
-40.641
-38.324
-35.876
-33.324
-30.698
-28.027
-25.34
-22.667
-20.04
-17.485
-15.034
-12.712
-10.546
-8.562
-6.781
-5.227
-3.917
-2.869
-2.097
-1.614
-1.427
-1.544
-1.967
-2.694
-3.722
-5.045
-6.651
-8.529
-10.66
-13.026
-15.605
-18.372
-21.301
-24.362
-27.522
-30.748
-34.003
-37.252
-40.455
-43.574
-46.568
-49.4
-52.031
-54.422
-56.539
-58.344
-59.803
-60.884
-61.556
-61.791
-61.561
-60.841
-59.612
-57.854
-55.554
-52.701
-49.289
-45.314
-40.777
-35.681
-30.034
-23.848
-17.136
-9.916
-2.209
5.959
14.562
23.564
32.93
42.62
52.59
62.797
73.193
83.731
94.364
105.047
115.733
126.379
136.941
147.376
157.64
167.689
177.474
186.95
196.076
204.811
213.117
220.963
228.315
235.148
241.445
247.189
252.363
256.944
260.901
264.21
266.867
268.873
270.239
270.985
271.127
270.703
269.772
268.393
266.633
264.533
262.104
259.362
256.333
253.053
249.58
245.956
242.175
238.229
234.126
229.869
225.474
220.916
216.092
210.882
205.172
198.892
192.031
184.601
176.586
167.944
158.71
149.024
139.153
129.446
120.179
111.52
103.615
96.663
90.71
85.67
81.354
77.267
72.971
68.208
62.795
56.815
50.883
45.818
42.391
41.664
44.592
52.192
65.583
85.126
110.268
140.031
173.263
208.689
245.097
279.66
308.911
331.17
344.591
349.268
345.828
330.73
302.461
261.097
206.552
143.572
74.623
0.048
-75.871
-148.433
-209.265
-249.089
-265.126
-259.256
-238.514
-211.369
-182.589
-154.169
-125.507
-95.947
-66.81
-40.7
-20.743
-8.522
-3.859
-5.542
-11.616
-20.46
-30.662
-40.417
-48.109
-52.781
-53.957
-51.799
-47.031
-40.343
-32.577
-24.854
-17.995
-12.461
-8.453
-5.819
-4.279
-3.64
-3.633
-3.912
-4.297
-4.73
-5.274
-6.131
-7.425
-9.163
-11.301
-13.781
-16.567
-19.644
-23.002
-26.604
-30.406
-34.367
-38.468
-42.699
-47.021
-51.36
-55.592
-59.574
-63.228
-66.542
-69.561
-72.326
-74.843
-77.101
-79.087
-80.804
-82.254
-83.42
-84.259
-84.721
-84.783
-84.448
-83.748
-82.722
-81.378
-79.696
-77.642
-75.187
-72.319
-69.031
-65.31
-61.139
-56.512
-51.442
-45.961
-40.104
-33.895
-27.352
-20.486
-13.315
-5.862
1.847
9.781
17.916
26.224
34.677
43.242
51.888
60.586
69.313
78.052
86.785
95.494
104.159
112.765
121.297
129.744
138.091
146.327
154.439
162.419
170.262
177.963
185.518
192.927
200.188
207.304
214.278
221.113
227.813
234.383
240.829
247.156
253.369
259.475
265.479
271.386
277.203
282.933
288.582
294.153
299.648
305.07
310.42
315.697
320.902
326.03
331.081
336.048
340.929
345.719
350.411
354.999
359.476
363.833
368.063
372.157
376.105
379.897
383.523
386.975
390.241
393.314
396.184
398.842
401.281
403.494
405.474
407.214
408.711
409.959
410.955
411.697
412.184
412.415
412.391
412.112
411.582
410.804
409.781
408.518
407.02
405.294
403.344
401.178
398.803
396.225
393.452
390.491
387.349
384.034
380.552
376.91
373.115
369.171
365.085
360.863
356.507
352.024
347.416
342.686
337.838
332.874
327.795
322.603
317.3
311.886
306.362
300.728
294.986
289.136
283.178
277.115
270.948
264.678
258.308
251.841
245.282
238.633
231.902
225.094
218.216
211.278
204.288
197.258
190.2
183.126
176.05
168.986
161.951
154.96
148.029
141.176
134.418
127.775
121.264
114.903
108.713
102.711
96.916
91.345
86.015
80.943
76.143
71.63
67.418
63.519
59.943
56.701
53.801
51.251
49.056
47.217
45.735
44.608
43.832
43.401
43.305
43.533
44.074
44.911
46.031
47.416
49.048
50.906
52.969
55.214
57.616
60.149
62.787
65.502
68.267
71.056
73.843
76.602
79.307
81.932
84.451
86.84
89.073
91.124
92.97
94.587
95.959
97.071
97.907
98.455
98.703
98.643
98.272
97.586
96.576
95.238
93.565
91.555
89.211
86.537
83.522
80.16
76.444
72.362
67.925
63.148
58.038
52.61
46.886
40.885
34.647
28.216
21.607
14.842
7.935
0.912
-6.158
-13.194
-20.112
-26.835
-33.327
-39.591
-45.628
-51.478
-57.211
-62.895
-68.653
-74.539
-80.471
-86.31
-91.831
-96.836
-101.293
-105.24
-108.725
-112.043
-115.63
-119.932
-125.613
-133.177
-142.77
-154.434
-167.982
-182.674
-197.574
-211.784
-224.032
-233.109
-238.057
-237.682
-230.999
-218.05
-199.219
-175.381
-148.766
-120.876
-92.777
-65.408
-38.327
-13.776
3.38
7.96
-5.173
-34.664
-74.077
-117.775
-161.057
-204.032
-248.669
-291.565
-326.104
-345.744
-346.174
-329.165
-300.89
-265.99
-228.162
-191.389
-159.495
-137.273
-127.858
-129.685
-136.88
-143.123
-144.428
-140.181
-133.555
-127.443
-122.764
-119.46
-116.41
-113.077
-110.036
-107.909
-107.017
-107.319
-108.459
-110.049
-111.934
-114.025
-116.22
-118.482
-120.806
-123.211
-125.753
-128.467
-131.334
-134.33
-137.418
-140.554
-143.735
-146.975
-150.314
-153.817
-157.519
-161.428
-165.543
-169.841
-174.295
-178.88
-183.554
-188.272
-193.003
-197.724
-202.42
-207.087
-211.706
-216.256
-220.709
-225.035
-229.205
-233.195
-236.981
-240.541
-243.858
-246.914
-249.701
-252.21
-254.434
-256.361
-257.98
-259.28
-260.248
-260.876
-261.156
-261.078
-260.635
-259.823
-258.639
-257.083
-255.153
-252.852
-250.18
-247.141
-243.737
-239.973
-235.853
-231.382
-226.564
-221.407
-215.917
-210.104
-203.978
-197.55
-190.834
-183.843
-176.594
-169.103
-161.387
-153.465
-145.355
-137.078
-128.655
-120.109
-111.462
-102.737
-93.958
-85.151
-76.341
-67.55
-58.805
-50.128
-41.545
-33.078
-24.752
-16.59
-8.615
-0.85
6.683
13.961
20.963
27.67
34.061
40.12
45.83
51.177
56.147
60.73
64.915
68.697
72.068
75.027
77.571
79.701
81.419
82.729
83.636
84.148
84.274
84.023
83.406
82.437
81.127
79.491
77.546
75.305
72.787
70.01
66.99
63.747
60.3
56.669
52.872
48.931
44.864
40.691
36.43
32.101
27.72
23.305
18.87
14.43
9.998
5.587
1.207
-3.132
-7.422
-11.655
-15.826
-19.927
-23.956
-27.908
-31.781
-35.572
-39.28
-42.904
-46.443
-49.899
-53.272
-56.562
-59.772
-62.904
-65.961
-68.945
-71.859
-74.707
-77.493
-80.221
-82.895
-85.52
-88.098
-90.634
-93.132
-95.593
-98.021
-100.419
-102.787
-105.128
-107.442
-109.732
-111.998
-114.241
-116.461
-118.658
-120.834
-122.987
-125.117
-127.225
-129.308
-131.366
-133.399
-135.405
-137.383
-139.333
-141.252
-143.141
-144.996
-146.815
-148.597
-150.339
-152.038
-153.69
-155.292
-156.841
-158.335
-159.769
-161.142
-162.448
-163.684
-164.847
-165.932
-166.933
-167.845
-168.663
-169.381
-169.993
-170.495
-170.881
-171.147
-171.289
-171.305
-171.19
-170.944
-170.564
-170.047
-169.392
-168.597
-167.662
-166.587
-165.374
-164.024
-162.54
-160.928
-159.191
-157.337
-155.37
-153.295
-151.12
-148.849
-146.49
-144.053
-141.545
-138.979
-136.368
-133.727
-131.071
-128.412
-125.765
-123.141
-120.551
-118.004
-115.507
-113.068
-110.693
-108.394
-106.183
-104.071
-102.072
-100.198
-98.46
-96.874
-95.454
-94.216
-93.178
-92.356
-91.766
-91.425
-91.346
-91.537
-92
-92.729
-93.714
-94.95
-96.422
-98.111
-99.999
-102.045
-104.205
-106.434
-108.659
-110.823
-112.89
-114.83
-116.665
-118.455
-120.246
-122.138
-124.248
-126.581
-129.09
-131.658
-134.049
-136.145
-137.931
-139.31
-140.281
-141.126
-142.318
-144.619
-148.886
-155.574
-164.892
-177.045
-192.028
-209.407
-228.177
-246.704
-263.312
-276.735
-285.848
-289.615
-287.088
-277.599
-261.582
-240.435
-215.374
-188.371
-161.783
-137.068
-116.755
-101.965
-92.504
-91.311
-100.843
-123.992
-162.767
-212.244
-267.024
-322.871
-377.474
-433.619
-491.287
-545.392
-587.578
-608.794
-605.794
-581.716
-544.641
-502.501
-458.906
-416.911
-378.499
-345.933
-324.528
-315.631
-316.331
-323.18
-330.478
-335.041
-337.833
-339.265
-339.729
-339.054
-335.612
-328.951
-319.777
-309.105
-298.257
-287.979
-278.519
-270.038
-262.556
-256.03
-250.312
-245.068
-239.915
-234.647
-229.194
-223.564
-217.836
-212.04
-206.192
-200.356
-194.607
-189.009
-183.603
-178.408
-173.429
-168.671
-164.138
-159.827
-155.734
-151.84
-148.12
-144.547
-141.085
-137.712
-134.411
-131.166
-127.962
-124.78
-121.598
-118.39
-115.133
-111.803
-108.376
-104.828
-101.139
-97.291
-93.272
-89.076
-84.697
-80.133
-75.376
-70.422
-65.27
-59.918
-54.369
-48.626
-42.696
-36.586
-30.309
-23.881
-17.32
-10.644
-3.873
2.974
9.875
16.809
23.755
30.691
37.595
44.445
51.219
57.896
64.452
70.866
77.117
83.186
89.055
94.705
100.12
105.286
110.191
114.824
119.174
123.235
127.001
130.469
133.637
136.505
139.076
141.355
143.349
145.066
146.519
147.718
148.679
149.416
149.946
150.287
150.457
150.475
150.36
150.134
149.815
149.427
148.988
148.521
148.046
147.584
147.156
146.781
146.479
146.267
146.164
146.185
146.345
146.659
147.138
147.793
148.634
149.668
150.901
152.337
153.979
155.827
157.88
160.135
162.586
165.227
168.049
171.042
174.196
177.496
180.928
184.478
188.127
191.857
195.651
199.486
203.342
207.198
211.029
214.812
218.524
222.14
225.637
228.989
232.172
235.163
237.938
240.475
242.751
244.745
246.437
247.808
248.84
249.517
249.824
249.749
249.282
248.412
247.135
245.445
243.34
240.819
237.885
234.541
230.793
226.65
222.121
217.221
211.964
206.368
200.452
194.238
187.749
181.01
174.049
166.892
159.57
152.113
144.553
136.923
129.256
121.587
113.952
106.385
98.921
91.596
84.442
77.494
70.783
64.339
58.193
52.372
46.902
41.808
37.114
32.839
29.004
25.624
22.713
20.282
18.341
16.893
15.941
15.485
15.522
16.046
17.052
18.528
20.463
22.843
25.648
28.861
32.458
36.413
40.697
45.279
50.128
55.211
60.494
65.941
71.516
77.185
82.911
88.657
94.387
100.062
105.643
111.094
116.375
121.452
126.288
130.847
135.101
139.022
142.585
145.771
148.558
150.926
152.861
154.346
155.369
155.916
155.977
155.542
154.611
153.191
151.295
148.936
146.128
142.891
139.246
135.214
130.811
126.046
120.921
115.447
109.65
103.564
97.23
90.699
84.019
77.242
70.43
63.64
56.912
50.267
43.712
37.26
30.953
24.857
19.05
13.601
8.553
3.949
-0.164
-3.783
-6.937
-9.7
-12.193
-14.516
-16.7
-18.772
-20.777
-22.674
-24.398
-25.849
-26.784
-27.01
-26.462
-25.007
-22.469
-18.932
-14.608
-9.899
-5.64
-2.471
-0.764
-1.067
-3.773
-8.638
-15.052
-21.772
-26.712
-28.144
-24.586
-14.246
4.194
31.171
66.467
108.759
155.607
204.581
252.806
296.715
332.988
358.614
371.157
369.108
351.645
319.394
275.031
221.64
162.637
99.629
31.719
-39.096
-108.448
-169.055
-210.947
-228.825
-222.244
-195.061
-155.141
-110.958
-70.291
-38.277
-17.945
-8.386
-5.286
-5.926
-7.471
-8.934
-12.387
-18.016
-25.344
-33.777
-41.176
-46.082
-48.189
-47.523
-44.695
-40.71
-36.378
-32.058
-27.986
-24.338
-21.067
-18.172
-15.628
-13.136
-10.355
-7.105
-3.282
1.106
5.947
11.195
16.834
22.796
28.995
35.333
41.712
48.062
54.335
60.491
66.493
72.301
77.876
83.192
88.235
93.002
97.498
101.711
105.625
109.222
112.488
115.422
118.029
120.313
122.281
123.944
125.314
126.411
127.256
127.864
128.249
128.426
128.406
128.21
127.858
127.372
126.777
126.097
125.355
124.575
123.783
123
122.243
121.53
120.875
120.293
119.797
119.396
119.101
118.919
118.856
118.917
119.103
119.416
119.851
120.406
121.073
121.845
122.711
123.659
124.676
125.748
126.861
127.998
129.143
130.279
131.39
132.457
133.464
134.394
135.231
135.959
136.563
137.03
137.349
137.509
137.501
137.319
136.956
136.409
135.676
134.755
133.648
132.357
130.885
129.238
127.423
125.447
123.321
121.053
118.657
116.143
113.526
110.818
108.033
105.187
102.292
99.365
96.418
93.467
90.525
87.606
84.722
81.887
79.112
76.407
73.784
71.251
68.817
66.491
64.277
62.184
60.217
58.379
56.677
55.112
53.688
52.408
51.273
50.285
49.445
48.755
48.214
47.824
47.585
47.497
47.561
47.777
48.145
48.665
49.338
50.164
51.143
52.274
53.559
54.997
56.588
58.332
60.229
62.277
64.476
66.825
69.319
71.958
74.737
77.652
80.697
83.867
87.153
90.549
94.045
97.633
101.3
105.036
108.827
112.661
116.522
120.395
124.263
128.109
131.915
135.664
139.336
142.914
146.377
149.707
152.885
155.889
158.702
161.302
163.671
165.79
167.641
169.208
170.474
171.426
172.051
172.338
172.278
171.863
171.086
169.942
168.428
166.541
164.282
161.652
158.655
155.298
151.587
147.533
143.147
138.443
133.434
128.135
122.561
116.729
110.657
104.364
97.87
91.196
84.365
77.402
70.33
63.175
55.961
48.712
41.449
34.196
26.972
19.797
12.686
5.656
-1.274
-8.088
-14.77
-21.303
-27.673
-33.866
-39.865
-45.658
-51.235
-56.591
-61.726
-66.639
-71.327
-75.787
-80.022
-84.033
-87.827
-91.404
-94.758
-97.891
-100.813
-103.543
-106.116
-108.556
-110.873
-113.074
-115.166
-117.154
-119.039
-120.797
-122.383
-123.75
-124.874
-125.755
-126.427
-126.909
-127.215
-127.347
-127.29
-127.063
-126.702
-126.236
-125.692
-125.1
-124.506
-124.027
-123.843
-124.143
-125.095
-126.795
-129.264
-132.512
-136.493
-141.19
-146.646
-152.748
-159.262
-165.981
-172.65
-179.135
-185.516
-191.626
-196.94
-201.126
-204.073
-205.861
-206.993
-207.683
-207.57
-206.512
-204.702
-202.255
-199.108
-194.74
-187.794
-177.126
-162.407
-143.469
-120.273
-92.932
-61.83
-28.22
5.268
35.599
60.209
76.613
82.59
76.061
55.062
19.678
-27.273
-82.602
-143.019
-207.356
-276.966
-349.49
-419.744
-479.285
-516.773
-526.979
-509.718
-468.461
-411.935
-347.734
-282.84
-225.88
-182.201
-154.091
-140.386
-134.593
-130.476
-124.751
-116.971
-109.803
-105.198
-103.029
-101.947
-99.92
-96.125
-91.062
-85.582
-80.799
-77.518
-76.002
-76.438
-78.812
-82.841
-88.192
-94.472
-101.208
-107.954
-114.385
-120.22
-125.279
-129.507
-132.86
-135.333
-136.967
-137.823
-137.977
-137.544
-136.657
-135.438
-134.029
-132.526
-130.995
-129.498
-128.078
-126.785
-125.655
-124.701
-123.922
-123.317
-122.883
-122.617
-122.5
-122.485
-122.507
-122.499
-122.386
-122.116
-121.655
-120.97
-120.04
-118.85
-117.395
-115.679
-113.715
-111.509
-109.059
-106.368
-103.436
-100.274
-96.895
-93.316
-89.557
-85.636
-81.569
-77.375
-73.072
-68.673
-64.193
-59.641
-55.029
-50.371
-45.682
-40.98
-36.281
-31.606
-26.973
-22.4
-17.907
-13.51
-9.225
-5.066
-1.045
2.826
6.537
10.081
13.449
16.636
19.637
22.451
25.077
27.514
29.768
31.842
33.744
35.483
37.07
38.517
39.837
41.046
42.159
43.194
44.169
45.102
46.014
46.925
47.855
48.827
49.861
50.978
52.201
53.548
55.038
56.69
58.52
60.543
62.773
65.222
67.9
70.815
73.974
77.38
81.035
84.939
89.09
93.482
98.107
102.957
108.019
113.279
118.721
124.328
130.078
135.952
141.926
147.975
154.073
160.195
166.313
172.398
178.422
184.355
190.168
195.832
201.319
206.6
211.646
216.432
220.931
225.119
228.971
232.467
235.586
238.311
240.624
242.513
243.965
244.971
245.523
245.618
245.252
244.426
243.142
241.405
239.221
236.602
233.557
230.102
226.251
222.024
217.438
212.515
207.278
201.749
195.955
189.921
183.676
177.246
170.663
163.955
157.153
150.288
143.389
136.487
129.611
122.791
116.055
109.429
102.94
96.613
90.473
84.54
78.837
73.382
68.193
63.285
58.671
54.363
50.369
46.696
43.347
40.326
37.634
35.271
33.233
31.516
30.113
29.017
28.216
27.696
27.443
27.437
27.659
28.091
28.708
29.49
30.412
31.452
32.585
33.786
35.032
36.297
37.553
38.776
39.94
41.019
41.988
42.824
43.503
44.008
44.323
44.432
44.324
43.989
43.417
42.601
41.536
40.215
38.634
36.79
34.685
32.326
29.726
26.9
23.864
20.636
17.238
13.693
10.02
6.233
2.341
-1.648
-5.725
-9.862
-14.029
-18.192
-22.302
-26.317
-30.191
-33.865
-37.294
-40.452
-43.318
-45.887
-48.152
-50.07
-51.593
-52.673
-53.254
-53.314
-52.838
-51.799
-50.23
-48.203
-45.798
-43.157
-40.405
-37.574
-34.727
-31.924
-29.108
-26.23
-23.187
-19.722
-15.68
-10.997
-5.493
0.931
8.144
15.956
23.916
31.308
37.695
42.733
45.956
47.255
46.991
45.89
45.266
46.792
51.818
61.62
77.567
100.572
130.79
167.567
209.589
254.304
299.041
341.872
379.751
411.191
435.282
447.895
446.491
428.195
390.739
339.274
278.423
211.991
144.242
73.768
3.045
-60.696
-111.454
-141.405
-149.007
-140.03
-119.603
-94.127
-67.338
-38.601
-8.918
20.552
48.293
70.94
86.487
94.595
95.584
90.762
81.802
69.912
56.329
42.737
30.512
20.423
12.873
7.753
4.548
2.885
2.302
1.986
1.359
0.158
-1.788
-4.382
-7.382
-10.669
-14.038
-17.157
-19.851
-22.048
-23.713
-24.929
-25.781
-26.294
-26.545
-26.629
-26.603
-26.527
-26.423
-26.272
-26.07
-25.819
-25.516
-25.165
-24.758
-24.278
-23.723
-23.099
-22.411
-21.672
-20.889
-20.064
-19.206
-18.318
-17.407
-16.483
-15.553
-14.628
-13.719
-12.834
-11.989
-11.201
-10.483
-9.848
-9.307
-8.867
-8.538
-8.327
-8.243
-8.292
-8.48
-8.814
-9.302
-9.949
-10.761
-11.741
-12.89
-14.208
-15.692
-17.337
-19.137
-21.085
-23.171
-25.383
-27.708
-30.133
-32.643
-35.221
-37.848
-40.505
-43.17
-45.822
-48.437
-50.991
-53.46
-55.819
-58.041
-60.103
-61.98
-63.645
-65.075
-66.246
-67.134
-67.717
-67.972
-67.88
-67.42
-66.577
-65.334
-63.678
-61.6
-59.09
-56.143
-52.756
-48.928
-44.66
-39.957
-34.827
-29.279
-23.325
-16.98
-10.263
-3.192
4.208
11.914
19.899
28.133
36.586
45.226
54.019
62.93
71.924
80.964
90.014
99.035
107.989
116.839
125.548
134.079
142.395
150.463
158.248
165.717
172.841
179.59
185.937
191.857
197.326
202.324
206.83
210.829
214.306
217.249
219.65
221.5
222.797
223.537
223.721
223.352
222.435
220.976
218.985
216.473
213.452
209.937
205.944
201.49
196.595
191.279
185.563
179.469
173.019
166.236
159.145
151.768
144.129
136.253
128.165
119.886
111.443
102.859
94.155
85.356
76.483
67.556
58.595
49.618
40.644
31.688
22.765
13.89
5.074
-3.671
-12.335
-20.91
-29.389
-37.766
-46.038
-54.202
-62.257
-70.202
-78.038
-85.768
-93.392
-100.916
-108.344
-115.681
-122.933
-130.108
-137.215
-144.264
-151.265
-158.23
-165.172
-172.103
-179.035
-185.982
-192.954
-199.966
-207.027
-214.15
-221.344
-228.62
-235.988
-243.454
-251.028
-258.715
-266.521
-274.449
-282.501
-290.677
-298.975
-307.393
-315.928
-324.574
-333.326
-342.177
-351.119
-360.143
-369.24
-378.395
-387.591
-396.806
-406.016
-415.193
-424.311
-433.34
-442.253
-451.019
-459.613
-468.013
-476.196
-484.144
-491.833
-499.236
-506.328
-513.085
-519.487
-525.516
-531.153
-536.382
-541.183
-545.54
-549.439
-552.863
-555.788
-558.175
-559.977
-561.144
-561.647
-561.462
-560.569
-558.948
-556.573
-553.418
-549.491
-544.821
-539.454
-533.452
-526.873
-519.75
-512.147
-504.177
-495.91
-487.363
-478.451
-468.965
-458.739
-447.721
-435.918
-423.36
-410.22
-396.763
-383.429
-370.919
-359.849
-350.628
-343.424
-338.074
-334.009
-330.442
-326.342
-320.223
-310.636
-296.333
-276.219
-249.716
-217.069
-178.785
-136.448
-93.221
-51.301
-12.434
22.324
53.805
79.486
93.959
93.004
72.924
35.65
-11.57
-64.402
-120.199
-176.911
-234.005
-284.835
-318.775
-330.744
-317.89
-283.451
-237.54
-184.933
-130.578
-79.938
-33.869
3.166
28.732
45.382
54.682
60.26
64.346
65.559
63.509
58.263
51.187
45.238
41.958
41.728
44.336
48.83
54.66
61.44
68.343
74.7
80.091
84.259
87.267
89.327
90.578
91.218
91.547
91.746
91.901
92.048
92.117
92.042
91.776
91.24
90.35
89.055
87.344
85.24
82.792
80.038
77.004
73.719
70.215
66.532
62.705
58.756
54.704
50.563
46.357
42.117
37.87
33.643
29.462
25.348
21.327
17.423
13.658
10.053
6.626
3.392
0.367
-2.432
-4.99
-7.29
-9.319
-11.064
-12.516
-13.663
-14.5
-15.024
-15.234
-15.133
-14.724
-14.014
-13.009
-11.72
-10.155
-8.326
-6.247
-3.929
-1.39
1.355
4.287
7.388
10.638
14.015
17.499
21.066
24.697
28.369
32.06
35.749
39.414
43.035
46.59
50.06
53.426
56.67
59.776
62.728
65.512
68.118
70.535
72.754
74.77
76.578
78.174
79.559
80.732
81.696
82.455
83.015
83.384
83.571
83.587
83.443
83.153
82.732
82.195
81.559
80.841
80.059
79.232
78.378
77.517
76.668
75.85
75.082
74.381
73.767
73.255
72.862
72.602
72.488
72.534
72.75
73.145
73.728
74.505
75.48
76.656
78.034
79.613
81.392
83.365
85.528
87.872
90.391
93.072
95.906
98.879
101.977
105.187
108.491
111.873
115.316
118.801
122.309
125.823
129.322
132.787
136.201
139.542
142.794
145.938
148.956
151.833
154.551
157.096
159.454
161.613
163.561
165.287
166.782
168.04
169.052
169.812
170.318
170.564
170.549
170.27
169.728
168.923
167.855
166.527
164.942
163.103
161.015
158.682
156.111
153.306
150.275
147.026
143.565
139.902
136.046
132.005
127.79
123.41
118.875
114.193
109.374
104.427
99.358
94.177
88.892
83.511
78.042
72.494
66.874
61.192
55.457
49.677
43.861
38.02
32.162
26.296
20.433
14.583
8.758
2.968
-2.773
-8.453
-14.062
-19.587
-25.016
-30.338
-35.543
-40.62
-45.561
-50.355
-54.991
-59.454
-63.728
-67.796
-71.642
-75.252
-78.609
-81.699
-84.508
-87.027
-89.254
-91.186
-92.821
-94.154
-95.176
-95.886
-96.283
-96.371
-96.157
-95.644
-94.829
-93.715
-92.305
-90.608
-88.631
-86.367
-83.796
-80.889
-77.622
-73.991
-70.004
-65.661
-60.959
-55.888
-50.438
-44.65
-38.597
-32.36
-26.034
-19.679
-13.298
-6.948
-0.753
5.213
10.906
16.44
22.122
28.083
34.251
40.525
46.77
52.914
59.022
64.784
69.43
72.489
73.78
73.446
72.169
70.491
68.601
67.289
68.016
72.064
80.693
94.536
113.046
135.732
162.417
192.06
222.676
251.827
276.459
293.968
302.993
302.126
289.711
265.043
228.667
182.368
129.234
72.516
14.977
-40.027
-88.557
-127.246
-153.565
-167.053
-168.612
-158.44
-137.687
-107.117
-68.284
-26.766
12.98
46.433
69.227
82.775
88.682
88.816
86.944
83.208
77.75
71.935
65.982
61.519
60.029
61.51
65.73
71.989
79.355
87.139
94.922
102.342
109.156
115.35
121.005
126.294
131.493
136.89
142.618
148.724
155.213
162.002
169.028
176.237
183.522
190.766
197.879
204.786
211.453
217.879
224.055
229.961
235.587
240.917
245.951
250.702
255.167
259.337
263.201
266.747
269.968
272.866
275.442
277.701
279.645
281.278
282.608
283.644
284.398
284.88
285.102
285.072
284.804
284.313
283.62
282.746
281.716
280.551
279.278
277.923
276.513
275.072
273.624
272.193
270.8
269.469
268.22
267.075
266.055
265.178
264.464
263.929
263.589
263.459
263.548
263.864
264.415
265.201
266.223
267.479
268.962
270.665
272.577
274.684
276.973
279.426
282.021
284.737
287.549
290.43
293.351
296.28
299.185
302.032
304.788
307.419
309.894
312.177
314.238
316.044
317.566
318.774
319.639
320.133
320.23
319.904
319.137
317.909
316.205
314.014
311.327
308.141
304.458
300.28
295.613
290.464
284.844
278.766
272.245
265.298
257.942
250.199
242.097
233.666
224.944
215.967
206.774
197.405
187.905
178.313
168.669
159.006
149.35
139.734
130.191
120.758
111.481
102.395
93.527
84.906
76.555
68.482
60.686
53.143
45.805
38.64
31.63
24.764
18.056
11.512
5.138
-1.048
-7.033
-12.812
-18.374
-23.738
-28.929
-33.925
-38.688
-43.139
-47.141
-50.601
-53.463
-55.666
-57.203
-58.092
-58.376
-58.169
-57.615
-56.83
-55.904
-54.873
-53.775
-52.743
-51.956
-51.657
-52.128
-53.56
-56.145
-60.138
-65.663
-72.743
-81.231
-90.707
-100.847
-111.563
-122.811
-134.632
-147.115
-160.213
-174.116
-189.313
-205.828
-223.287
-241.052
-258.074
-273.455
-286.634
-296.76
-302.749
-304.146
-300.975
-293.767
-283.71
-271.745
-258.488
-244.859
-231.954
-220.51
-210.969
-203.298
-196.927
-191.54
-187.085
-183.396
-180.267
-177.524
-175.024
-172.865
-171.388
-170.754
-170.951
-171.903
-173.44
-175.459
-177.925
-180.736
-183.744
-186.838
-189.949
-193.065
-196.235
-199.482
-202.8
-206.187
-209.642
-213.184
-216.847
-220.666
-224.666
-228.858
-233.238
-237.794
-242.499
-247.298
-252.119
-256.877
-261.498
-265.926
-270.106
-273.985
-277.503
-280.596
-283.228
-285.385
-287.064
-288.269
-289.01
-289.298
-289.178
-288.769
-288.122
-287.209
-285.923
-284.032
-281.339
-277.762
-273.24
-267.699
-261.326
-254.469
-247.559
-241.338
-236.405
-233.089
-231.607
-231.833
-233
-234.065
-233.959
-231.267
-224.786
-213.467
-196.242
-172.779
-143.704
-110.223
-73.698
-35.678
2.242
37.919
68.568
91.884
106.348
111.128
105.511
88.529
59.52
19.734
-27.602
-79.372
-133.388
-189.735
-249.144
-309.156
-364.244
-406.864
-430.836
-434.292
-419.274
-390.264
-351.393
-306.454
-259.866
-217.005
-183.667
-163.386
-155.72
-155.861
-157.757
-157.384
-153.689
-148.716
-144.619
-141.78
-139.069
-134.587
-127.547
-118.427
-108.331
-98.513
-89.465
-81.256
-74.067
-67.954
-62.873
-58.686
-54.977
-51.292
-47.443
-43.38
-39.098
-34.66
-30.085
-25.395
-20.691
-16.093
-11.681
-7.51
-3.605
0.018
3.31
6.203
8.65
10.615
12.088
13.07
13.567
13.582
13.132
12.24
10.928
9.219
7.13
4.677
1.882
-1.229
-4.624
-8.267
-12.124
-16.161
-20.347
-24.651
-29.043
-33.497
-37.988
-42.492
-46.986
-51.442
-55.834
-60.138
-64.328
-68.383
-72.284
-76.009
-79.543
-82.874
-85.99
-88.883
-91.545
-93.97
-96.153
-98.091
-99.786
-101.237
-102.447
-103.42
-104.162
-104.682
-104.99
-105.096
-105.012
-104.752
-104.328
-103.756
-103.052
-102.231
-101.31
-100.304
-99.231
-98.106
-96.946
-95.767
-94.582
-93.406
-92.253
-91.135
-90.062
-89.046
-88.094
-87.214
-86.413
-85.695
-85.064
-84.524
-84.075
-83.718
-83.452
-83.276
-83.186
-83.179
-83.248
-83.388
-83.591
-83.849
-84.153
-84.494
-84.861
-85.242
-85.628
-86.005
-86.363
-86.689
-86.97
-87.195
-87.351
-87.427
-87.412
-87.295
-87.065
-86.713
-86.23
-85.608
-84.839
-83.916
-82.834
-81.587
-80.172
-78.584
-76.821
-74.882
-72.766
-70.473
-68.006
-65.367
-62.559
-59.588
-56.458
-53.176
-49.75
-46.188
-42.5
-38.696
-34.786
-30.782
-26.698
-22.546
-18.34
-14.093
-9.821
-5.538
-1.258
3.004
7.234
11.417
15.54
19.59
23.551
27.412
31.16
34.782
38.266
41.602
44.778
47.786
50.617
53.262
55.715
57.97
60.021
61.863
63.492
64.907
66.105
67.086
67.852
68.404
68.747
68.885
68.825
68.574
68.14
67.53
66.754
65.821
64.74
63.521
62.172
60.705
59.13
57.458
55.702
53.871
51.979
50.037
48.057
46.048
44.021
41.986
39.952
37.929
35.926
33.955
32.025
30.147
28.329
26.581
24.91
23.32
21.815
20.396
19.066
17.827
16.681
15.631
14.682
13.84
13.109
12.496
12.005
11.636
11.386
11.252
11.23
11.313
11.494
11.762
12.104
12.508
12.959
13.443
13.941
14.434
14.905
15.344
15.743
16.098
16.408
16.666
16.876
17.047
17.189
17.333
17.51
17.752
18.114
18.639
19.352
20.262
21.335
22.496
23.681
24.791
25.713
26.436
26.996
27.497
28.137
29.003
30.093
31.48
33.168
34.898
36.222
36.447
34.798
30.91
24.675
15.888
4.499
-9.154
-24.241
-39.315
-52.81
-63.636
-70.932
-73.651
-70.784
-61.663
-46.341
-25.872
-1.533
25.531
53.855
81.391
105.713
124.325
135.103
136.791
128.149
107.776
75.992
34.959
-12.991
-64.778
-119.212
-177.955
-239.188
-298.423
-348.674
-379.666
-386.045
-368.161
-329.649
-277.702
-219.31
-160.016
-106.429
-65.87
-42.648
-37.676
-46.726
-60.9
-73.899
-82.661
-87.329
-91.15
-95.129
-98.473
-100.177
-98.658
-93.929
-87.184
-79.322
-71.375
-64.007
-57.312
-51.447
-46.447
-42.103
-38.21
-34.491
-30.603
-26.388
-21.819
-16.884
-11.642
-6.149
-0.429
5.428
11.319
17.184
22.963
28.648
34.259
39.802
45.278
50.69
56.032
61.313
66.552
71.747
76.891
81.969
86.958
91.849
96.635
101.307
105.861
110.286
114.57
118.707
122.687
126.501
130.139
133.586
136.826
139.846
142.637
145.191
147.502
149.567
151.381
152.94
154.245
155.293
156.083
156.612
156.877
156.878
156.614
156.088
155.303
154.264
152.977
151.45
149.693
147.716
145.528
143.141
140.566
137.814
134.898
131.831
128.624
125.292
121.848
118.305
114.678
110.978
107.218
103.412
99.57
95.705
91.825
87.943
84.068
80.209
76.377
72.579
68.825
65.122
61.479
57.901
54.395
50.967
47.62
44.36
41.188
38.109
35.125
32.237
29.448
26.76
24.173
21.688
19.306
17.028
14.853
12.781
10.813
8.947
7.185
5.524
3.966
2.508
1.15
-0.108
-1.269
-2.332
-3.299
-4.172
-4.953
-5.642
-6.243
-6.755
-7.183
-7.527
-7.789
-7.973
-8.081
-8.115
-8.078
-7.973
-7.804
-7.573
-7.286
-6.944
-6.553
-6.115
-5.636
-5.119
-4.568
-3.988
-3.382
-2.756
-2.112
-1.455
-0.789
-0.118
0.555
1.226
1.89
2.545
3.187
3.812
4.417
5
5.556
6.083
6.579
7.042
7.469
7.858
8.208
8.518
8.786
9.012
9.194
9.333
9.426
9.475
9.479
9.438
9.351
9.22
9.043
8.821
8.554
8.243
7.888
7.49
7.048
6.566
6.044
5.486
4.894
4.271
3.62
2.946
2.253
1.544
0.823
0.094
-0.642
-1.379
-2.115
-2.845
-3.566
-4.275
-4.966
-5.637
-6.282
-6.898
-7.482
-8.029
-8.537
-9.002
-9.421
-9.791
-10.108
-10.369
-10.569
-10.706
-10.775
-10.774
-10.702
-10.561
-10.351
-10.075
-9.733
-9.328
-8.859
-8.325
-7.723
-7.045
-6.287
-5.444
-4.514
-3.494
-2.386
-1.194
0.078
1.423
2.836
4.315
5.855
7.45
9.094
10.776
12.488
14.221
15.969
17.732
19.507
21.296
23.112
24.975
26.918
28.98
31.188
33.568
36.154
38.986
42.119
45.597
49.427
53.598
58.076
62.806
67.759
72.866
78.012
83.162
88.325
93.564
99.1
105.09
111.582
118.696
126.461
134.633
142.855
150.531
156.808
161.129
163.111
162.3
158.671
152.716
145.309
137.957
132.411
130.022
132.175
140.365
155.499
177.858
206.944
241.311
279.244
319.025
358.255
394.066
423.792
445.006
456.004
455.758
443.219
418.514
383.846
341.838
295.384
245.399
189.974
129.871
68.72
14.195
-22.319
-34.414
-20.648
15.764
65.868
122.228
178.344
226.849
263.965
287.393
297.166
298.355
295.628
291.518
286.969
280.163
269.961
257.744
245.752
236.338
230.811
229.059
230.291
233.637
238.333
243.454
248.221
252.171
254.99
256.663
257.358
257.208
256.45
255.434
254.352
253.289
252.267
251.195
250.005
248.662
247.077
245.149
242.818
240.056
236.885
233.356
229.501
225.341
220.893
216.181
211.239
206.097
200.771
195.273
189.608
183.789
177.837
171.774
165.618
159.39
153.105
146.782
140.445
134.113
127.804
121.535
115.32
109.172
103.108
97.14
91.285
85.556
79.966
74.526
69.248
64.141
59.211
54.463
49.897
45.516
41.32
37.307
33.476
29.826
26.354
23.059
19.936
16.984
14.198
11.572
9.102
6.78
4.601
2.556
0.638
-1.162
-2.85
-4.433
-5.921
-7.32
-8.638
-9.883
-11.061
-12.181
-13.25
-14.275
-15.264
-16.222
-17.157
-18.074
-18.979
-19.878
-20.775
-21.678
-22.591
-23.521
-24.472
-25.451
-26.465
-27.518
-28.617
-29.767
-30.974
-32.242
-33.576
-34.981
-36.461
-38.019
-39.659
-41.384
-43.196
-45.099
-47.092
-49.178
-51.358
-53.63
-55.995
-58.45
-60.996
-63.628
-66.344
-69.139
-72.011
-74.952
-77.958
-81.022
-84.136
-87.293
-90.485
-93.701
-96.932
-100.17
-103.402
-106.619
-109.81
-112.964
-116.07
-119.118
-122.097
-124.997
-127.807
-130.52
-133.125
-135.615
-137.981
-140.218
-142.318
-144.277
-146.091
-147.754
-149.265
-150.622
-151.824
-152.87
-153.761
-154.499
-155.086
-155.526
-155.823
-155.982
-156.006
-155.903
-155.678
-155.338
-154.889
-154.34
-153.697
-152.968
-152.162
-151.286
-150.349
-149.357
-148.317
-147.236
-146.12
-144.973
-143.801
-142.607
-141.395
-140.167
-138.925
-137.671
-136.405
-135.128
-133.837
-132.532
-131.208
-129.863
-128.493
-127.093
-125.658
-124.182
-122.663
-121.094
-119.473
-117.794
-116.053
-114.246
-112.368
-110.415
-108.382
-106.266
-104.061
-101.765
-99.378
-96.898
-94.328
-91.669
-88.924
-86.097
-83.194
-80.219
-77.181
-74.084
-70.937
-67.751
-64.537
-61.307
-58.079
-54.866
-51.687
-48.563
-45.513
-42.555
-39.705
-36.981
-34.397
-31.966
-29.703
-27.618
-25.725
-24.038
-22.573
-21.348
-20.378
-19.676
-19.253
-19.118
-19.277
-19.735
-20.491
-21.538
-22.877
-24.51
-26.445
-28.7
-31.281
-34.181
-37.395
-40.914
-44.718
-48.784
-53.068
-57.502
-62.038
-66.642
-71.291
-75.989
-80.727
-85.481
-90.225
-94.928
-99.569
-104.144
-108.626
-112.96
-117.118
-121.101
-124.98
-128.907
-132.992
-137.305
-141.877
-146.733
-151.943
-157.513
-163.337
-169.198
-174.771
-179.78
-184.129
-187.708
-190.295
-191.905
-192.699
-193.017
-193.613
-195.064
-197.574
-201.473
-207.081
-214.139
-222.011
-229.521
-234.825
-236.505
-233.563
-224.642
-208.552
-184.835
-153.572
-115.997
-74.258
-29.941
14.6
56.135
92.383
120.636
139.784
149.987
148.322
132.481
100.777
52.934
-5.457
-69.233
-135.752
-202.989
-270.476
-334.07
-384.546
-413.826
-418.204
-400.515
-370.327
-337.243
-307.033
-281.754
-259.84
-239.64
-221.167
-205.182
-192.832
-184.263
-178.478
-174.079
-169.635
-164.499
-158.631
-152.154
-145.378
-138.61
-132.13
-126.347
-121.637
-118.096
-115.642
-114.059
-113.044
-112.361
-111.804
-111.182
-110.341
-109.159
-107.574
-105.578
-103.185
-100.411
-97.271
-93.77
-89.919
-85.759
-81.328
-76.68
-71.873
-66.958
-61.992
-57.014
-52.038
-47.075
-42.124
-37.174
-32.214
-27.228
-22.193
-17.097
-11.932
-6.686
-1.351
4.086
9.64
15.327
21.16
27.15
33.303
39.619
46.097
52.734
59.523
66.453
73.513
80.693
87.984
95.377
102.864
110.434
118.074
125.772
133.513
141.281
149.059
156.828
164.567
172.256
179.875
187.403
194.82
202.104
209.236
216.193
222.954
229.498
235.805
241.854
247.623
253.092
258.242
263.056
267.515
271.604
275.308
278.614
281.508
283.98
286.02
287.622
288.777
289.483
289.736
289.537
288.888
287.793
286.258
284.293
281.909
279.118
275.937
272.383
268.474
264.232
259.68
254.843
249.746
244.419
238.889
233.189
227.348
221.401
215.38
209.319
203.251
197.21
191.231
185.346
179.587
173.988
168.579
163.39
158.449
153.783
149.416
145.372
141.671
138.332
135.371
132.801
130.633
128.876
127.535
126.614
126.113
126.029
126.358
127.091
128.219
129.729
131.606
133.832
136.389
139.254
142.405
145.817
149.465
153.321
157.358
161.546
165.858
170.263
174.732
179.236
183.747
188.236
192.676
197.041
201.306
205.446
209.44
213.267
216.907
220.343
223.56
226.543
229.281
231.762
233.978
235.923
237.589
238.975
240.078
240.896
241.432
241.685
241.661
241.361
240.792
239.957
238.863
237.515
235.92
234.083
232.01
229.707
227.18
224.434
221.474
218.303
214.924
211.341
207.553
203.563
199.37
194.973
190.372
185.563
180.547
175.32
169.881
164.227
158.358
152.27
145.961
139.43
132.676
125.697
118.492
111.062
103.41
95.537
87.449
79.15
70.649
61.955
53.077
44.028
34.821
25.47
15.991
6.403
-3.274
-13.019
-22.809
-32.619
-42.423
-52.196
-61.91
-71.536
-81.05
-90.423
-99.633
-108.654
-117.463
-126.035
-134.35
-142.384
-150.114
-157.516
-164.57
-171.25
-177.538
-183.414
-188.864
-193.877
-198.448
-202.573
-206.252
-209.484
-212.269
-214.612
-216.517
-217.986
-219.024
-219.643
-219.857
-219.698
-219.196
-218.373
-217.25
-215.844
-214.155
-212.184
-209.926
-207.356
-204.46
-201.225
-197.641
-193.732
-189.53
-185.067
-180.371
-175.452
-170.319
-165.013
-159.597
-154.124
-148.671
-143.328
-138.194
-133.437
-129.21
-125.621
-122.788
-120.773
-119.606
-119.346
-120.009
-121.553
-123.975
-127.238
-131.195
-135.698
-140.446
-144.948
-148.86
-151.937
-153.948
-154.742
-154.201
-152.292
-149.424
-146.455
-143.965
-142.084
-140.588
-139.009
-137.065
-134.541
-130.641
-123.735
-112.339
-95.716
-73.924
-47.855
-18.352
14.033
48.094
81.296
110.544
132.839
145.714
147.989
138.695
116.422
80.417
31.368
-28.626
-96.186
-167.503
-239.645
-309.45
-372.982
-426.72
-467.766
-495.277
-510.983
-516.185
-511.461
-497.121
-472.548
-440.928
-408.512
-380.69
-363.111
-356.102
-354.825
-355.155
-352.39
-344.971
-335.35
-325.067
-315.52
-307.262
-299.195
-291.064
-283.267
-276.157
-270.304
-265.859
-262.548
-260.148
-258.452
-257.245
-256.316
-255.413
-254.326
-252.95
-251.258
-249.266
-246.975
-244.37
-241.457
-238.274
-234.876
-231.324
-227.67
-223.949
-220.214
-216.528
-212.962
-209.595
-206.479
-203.634
-201.073
-198.797
-196.801
-195.082
-193.622
-192.389
-191.353
-190.492
-189.782
-189.208
-188.748
-188.37
-188.047
-187.748
-187.451
-187.138
-186.788
-186.384
-185.91
-185.351
-184.699
-183.943
-183.075
-182.08
-180.946
-179.661
-178.212
-176.591
-174.788
-172.791
-170.596
-168.195
-165.586
-162.766
-159.733
-156.486
-153.025
-149.35
-145.464
-141.369
-137.068
-132.565
-127.865
-122.974
-117.9
-112.651
-107.237
-101.666
-95.95
-90.101
-84.132
-78.055
-71.886
-65.638
-59.328
-52.971
-46.586
-40.188
-33.797
-27.43
-21.105
-14.841
-8.656
-2.567
3.407
9.25
14.946
20.478
25.83
30.988
35.938
40.665
45.156
49.4
53.384
57.099
60.536
63.688
66.548
69.112
71.375
73.337
74.997
76.356
77.417
78.184
78.664
78.864
78.793
78.462
77.883
77.07
76.037
74.8
73.377
71.785
70.042
68.167
66.182
64.104
61.956
59.757
57.529
55.293
53.068
50.876
48.737
46.67
44.693
42.825
41.084
39.483
38.04
36.767
35.676
34.778
34.083
33.597
33.328
33.279
33.452
33.849
34.468
35.307
36.361
37.625
39.09
40.747
42.586
44.596
46.762
49.071
51.508
54.057
56.701
59.422
62.203
65.024
67.867
70.713
73.542
76.335
79.073
81.736
84.308
86.769
89.103
91.292
93.322
95.177
96.845
98.312
99.568
100.604
101.411
101.982
102.313
102.401
102.245
101.843
101.2
100.318
99.204
97.863
96.303
94.536
92.572
90.423
88.103
85.625
83.006
80.261
77.408
74.465
71.449
68.378
65.273
62.151
59.031
55.932
52.872
49.869
46.942
44.107
41.381
38.779
36.317
34.007
31.863
29.893
28.107
26.511
25.109
23.904
22.895
22.082
21.462
21.028
20.776
20.695
20.779
21.015
21.392
21.895
22.511
23.224
24.016
24.87
25.769
26.693
27.625
28.548
29.443
30.294
31.083
31.792
32.403
32.898
33.26
33.475
33.529
33.411
33.115
32.638
31.982
31.15
30.146
28.976
27.645
26.16
24.525
22.746
20.827
18.778
16.609
14.331
11.952
9.479
6.919
4.282
1.576
-1.186
-3.987
-6.81
-9.635
-12.427
-15.146
-17.746
-20.172
-22.385
-24.344
-25.997
-27.288
-28.145
-28.513
-28.374
-27.731
-26.61
-25.057
-23.099
-20.807
-18.324
-15.695
-12.904
-9.876
-6.374
-2.248
2.502
7.963
14.178
20.878
27.662
33.884
38.581
41.182
41.41
38.893
33.695
26.425
18.014
10.066
4.535
2.763
5.941
15.397
31.75
55.072
84.853
119.471
157.015
195.882
234.042
268.952
298.259
319.679
331.502
333.045
323.544
302.255
269.464
226.399
175.773
121.621
66.43
12.068
-39.701
-88.72
-131.515
-163.314
-181.548
-181.549
-162.882
-129.783
-84.85
-35.687
9.778
48.09
73.998
87.481
92.997
92.807
91.433
91.106
89.988
88.022
84.789
80.402
77.281
76.558
78.071
81.474
85.569
89.254
92.334
94.674
96.005
96.362
95.803
94.421
92.619
90.805
89.123
87.663
86.461
85.44
84.59
83.911
83.316
82.728
82.085
81.328
80.433
79.387
78.167
76.764
75.166
73.37
71.389
69.236
66.933
64.508
61.976
59.345
56.627
53.825
50.949
48.014
45.033
42.017
38.982
35.938
32.897
29.873
26.871
23.898
20.954
18.038
15.152
12.3
9.487
6.719
4.001
1.337
-1.268
-3.81
-6.285
-8.692
-11.032
-13.305
-15.511
-17.651
-19.725
-21.732
-23.671
-25.543
-27.347
-29.083
-30.749
-32.345
-33.873
-35.332
-36.725
-38.051
-39.312
-40.51
-41.645
-42.72
-43.736
-44.695
-45.599
-46.45
-47.251
-48.003
-48.71
-49.374
-49.998
-50.584
-51.135
-51.654
-52.141
-52.599
-53.029
-53.434
-53.815
-54.173
-54.511
-54.83
-55.133
-55.421
-55.696
-55.959
-56.212
-56.456
-56.692
-56.92
-57.141
-57.356
-57.564
-57.766
-57.96
-58.148
-58.328
-58.501
-58.666
-58.823
-58.971
-59.11
-59.24
-59.361
-59.474
-59.577
-59.673
-59.76
-59.84
-59.914
-59.982
-60.045
-60.104
-60.159
-60.213
-60.265
-60.317
-60.369
-60.423
-60.48
-60.541
-60.607
-60.68
-60.761
-60.85
-60.949
-61.058
-61.178
-61.308
-61.448
-61.598
-61.755
-61.918
-62.085
-62.251
-62.414
-62.569
-62.712
-62.835
-62.935
-63.003
-63.032
-63.016
-62.946
-62.813
-62.61
-62.326
-61.953
-61.481
-60.9
-60.201
-59.374
-58.409
-57.296
-56.026
-54.588
-52.973
-51.172
-49.178
-46.981
-44.574
-41.952
-39.108
-36.037
-32.737
-29.204
-25.438
-21.437
-17.203
-12.738
-8.046
-3.129
2.005
7.351
12.902
18.648
24.58
30.687
36.959
43.382
49.943
56.63
63.427
70.318
77.29
84.324
91.404
98.512
105.63
112.738
119.819
126.853
133.82
140.702
147.479
154.133
160.647
167.002
173.182
179.171
184.951
190.51
195.831
200.9
205.705
210.232
214.47
218.407
222.034
225.342
228.322
230.966
233.268
235.219
236.815
238.049
238.918
239.417
239.545
239.299
238.681
237.693
236.337
234.618
232.54
230.11
227.334
224.221
220.776
217.009
212.929
208.546
203.869
198.909
193.678
188.19
182.464
176.513
170.356
164.008
157.489
150.816
144.011
137.091
130.077
122.988
115.846
108.676
101.502
94.35
87.243
80.204
73.252
66.407
59.684
53.096
46.647
40.341
34.186
28.203
22.419
16.862
11.56
6.54
1.837
-2.519
-6.504
-10.108
-13.334
-16.182
-18.639
-20.686
-22.294
-23.437
-24.115
-24.348
-24.171
-23.63
-22.792
-21.758
-20.673
-19.676
-18.845
-18.198
-17.727
-17.489
-17.537
-17.819
-18.163
-18.365
-18.31
-18.065
-17.746
-17.232
-16.343
-15.112
-13.871
-13.173
-13.414
-14.446
-15.763
-17.138
-18.536
-19.642
-19.526
-16.664
-9.572
2.366
18.765
39.231
63.669
91.591
121.486
150.761
176.254
195.173
205.899
207.047
196.609
173.789
139.894
96.965
48.087
-5.642
-66.554
-134.188
-204.579
-269.17
-315.504
-337.181
-334.72
-315.06
-290.441
-268.697
-253.072
-243.556
-236.238
-229.255
-222.883
-217.467
-214.127
-212.851
-212.26
-211.158
-208.831
-205.077
-200.149
-194.422
-188.195
-181.784
-175.638
-170.195
-165.63
-161.93
-158.967
-156.537
-154.499
-152.751
-151.128
-149.441
-147.571
-145.437
-143.02
-140.355
-137.442
-134.271
-130.852
-127.205
-123.37
-119.409
-115.374
-111.299
-107.236
-103.232
-99.344
-95.639
-92.161
-88.935
-85.975
-83.283
-80.86
-78.709
-76.819
-75.168
-73.736
-72.499
-71.437
-70.533
-69.763
-69.097
-68.506
-67.956
-67.417
-66.865
-66.275
-65.62
-64.88
-64.031
-63.056
-61.937
-60.658
-59.2
-57.545
-55.675
-53.574
-51.231
-48.634
-45.773
-42.641
-39.236
-35.556
-31.603
-27.383
-22.901
-18.164
-13.185
-7.975
-2.55
3.073
8.877
14.84
20.939
27.151
33.45
39.81
46.204
52.605
58.984
65.316
71.57
77.72
83.738
89.597
95.271
100.733
105.958
110.924
115.608
119.991
124.053
127.779
131.155
134.17
136.814
139.083
140.97
142.475
143.599
144.344
144.717
144.725
144.378
143.69
142.673
141.344
139.721
137.823
135.67
133.283
130.685
127.898
124.946
121.853
118.644
115.343
111.975
108.564
105.135
101.711
98.316
94.971
91.698
88.516
85.445
82.501
79.7
77.056
74.582
72.288
70.182
68.273
66.565
65.061
63.764
62.673
61.787
61.103
60.616
60.323
60.215
60.287
60.529
60.934
61.492
62.193
63.026
63.982
65.048
66.215
67.471
68.805
70.206
71.663
73.168
74.709
76.278
77.867
79.468
81.074
82.679
84.277
85.865
87.438
88.996
90.535
92.056
93.559
95.045
96.516
97.974
99.422
100.863
102.301
103.739
105.182
106.632
108.094
109.573
111.072
112.596
114.147
115.729
117.346
118.999
120.692
122.424
124.199
126.015
127.874
129.774
131.715
133.695
135.711
137.761
139.84
141.944
144.067
146.203
148.344
150.482
152.61
154.718
156.798
158.839
160.833
162.768
164.634
166.42
168.117
169.711
171.191
172.547
173.767
174.842
175.761
176.514
177.093
177.489
177.696
177.704
177.508
177.099
176.472
175.62
174.538
173.222
171.668
169.874
167.838
165.561
163.045
160.291
157.301
154.078
150.626
146.948
143.051
138.941
134.624
130.109
125.405
120.523
115.475
110.272
104.926
99.447
93.848
88.138
82.328
76.425
70.437
64.376
58.251
52.076
45.863
39.626
33.381
27.145
20.935
14.764
8.642
2.574
-3.432
-9.367
-15.222
-20.988
-26.659
-32.23
-37.688
-43.018
-48.206
-53.246
-58.145
-62.923
-67.589
-72.14
-76.565
-80.853
-84.998
-88.985
-92.784
-96.342
-99.599
-102.516
-105.087
-107.329
-109.253
-110.86
-112.13
-113.039
-113.6
-113.847
-113.816
-113.521
-112.972
-112.206
-111.298
-110.411
-109.725
-109.364
-109.419
-109.938
-110.925
-112.412
-114.48
-117.079
-120.051
-123.171
-126.062
-128.44
-130.248
-131.376
-131.67
-131.112
-129.634
-127.387
-125.034
-123.156
-121.921
-121.334
-121.011
-120.198
-118.482
-115.297
-109.377
-99.331
-84.006
-62.635
-35.336
-3.131
33.157
72.73
114.011
154.66
191.888
222.875
245.183
257.363
258.165
245.922
220.306
182.977
135.455
79.561
16.886
-53.113
-126.981
-197.117
-256.19
-295.922
-313.951
-314.726
-302.465
-282.164
-256.52
-224.723
-187.961
-148.531
-109.137
-73.806
-45.253
-24.525
-11.956
-6.847
-7.687
-12.673
-19.884
-27.177
-32.799
-35.778
-35.551
-32.032
-25.735
-17.378
-7.848
1.683
10.385
17.874
23.939
28.655
32.248
34.915
36.964
38.801
40.647
42.583
44.616
46.632
48.541
50.294
51.805
52.989
53.787
54.154
54.057
53.484
52.421
50.854
48.78
46.197
43.121
39.569
35.567
31.151
26.348
21.184
15.684
9.87
3.767
-2.59
-9.166
-15.924
-22.825
-29.836
-36.922
-44.044
-51.172
-58.276
-65.333
-72.323
-79.224
-86.01
-92.661
-99.155
-105.473
-111.602
-117.527
-123.236
-128.721
-133.98
-139.01
-143.814
-148.396
-152.761
-156.916
-160.871
-164.635
-168.223
-171.648
-174.927
-178.075
-181.112
-184.056
-186.928
-189.748
-192.534
-195.305
-198.081
-200.879
-203.715
-206.605
-209.563
-212.6
-215.729
-218.956
-222.29
-225.736
-229.296
-232.97
-236.759
-240.657
-244.66
-248.76
-252.947
-257.21
-261.535
-265.908
-270.311
-274.727
-279.136
-283.519
-287.855
-292.12
-296.294
-300.353
-304.275
-308.037
-311.617
-314.994
-318.148
-321.059
-323.709
-326.081
-328.16
-329.934
-331.389
-332.517
-333.309
-333.76
-333.865
-333.622
-333.03
-332.091
-330.806
-329.182
-327.224
-324.941
-322.341
-319.437
-316.239
-312.763
-309.023
-305.036
-300.818
-296.387
-291.762
-286.961
-282.004
-276.91
-271.698
-266.388
-260.998
-255.547
-250.051
-244.528
-238.993
-233.461
-227.946
-222.46
-217.014
-211.62
-206.287
-201.022
-195.835
-190.731
-185.717
-180.797
-175.975
-171.254
-166.636
-162.122
-157.713
-153.407
-149.203
-145.1
-141.094
-137.181
-133.358
-129.62
-125.962
-122.377
-118.86
-115.406
-112.007
-108.658
-105.352
-102.085
-98.85
-95.643
-92.458
-89.29
-86.135
-82.989
-79.846
-76.702
-73.553
-70.394
-67.22
-64.027
-60.81
-57.565
-54.286
-50.97
-47.61
-44.203
-40.742
-37.223
-33.641
-29.99
-26.266
-22.464
-18.58
-14.609
-10.549
-6.395
-2.143
2.211
6.669
11.237
15.917
20.713
25.628
30.664
35.823
41.106
46.514
52.047
57.704
63.485
69.388
75.41
81.548
87.799
94.155
100.61
107.156
113.784
120.482
127.238
134.038
140.869
147.715
154.563
161.398
168.202
174.96
181.654
188.267
194.781
201.178
207.438
213.542
219.47
225.206
230.733
236.036
241.098
245.906
250.447
254.708
258.677
262.343
265.694
268.721
271.414
273.769
275.786
277.466
278.815
279.843
280.562
280.986
281.127
280.998
280.612
279.978
279.108
278.01
276.696
275.181
273.481
271.614
269.595
267.436
265.146
262.734
260.209
257.586
254.879
252.103
249.269
246.403
243.538
240.722
238.003
235.412
232.974
230.715
228.678
226.919
225.476
224.346
223.481
222.817
222.291
221.883
221.568
221.251
220.902
220.534
220.211
220.147
220.527
221.376
222.651
224.28
225.934
227.19
227.627
226.557
223.405
217.833
209.61
198.824
186.194
172.785
159.695
148.291
139.806
135.381
136.194
142.983
155.631
173.328
195.087
219.578
245.215
269.973
291.378
307.038
314.926
313.493
301.225
276.979
241.301
196.556
145.34
89.902
30.773
-32.697
-98.067
-159.087
-206.981
-233.273
-233.499
-210.084
-170.475
-122.475
-74.329
-30.195
9.216
42.268
69.996
92.257
108.247
119.466
125.355
126.271
123.548
117.563
110.494
104.334
99.676
97.076
96.347
96.735
97.923
99.468
100.525
100.633
99.615
97.365
94.074
90.006
85.322
80.333
75.514
71.197
67.582
64.762
62.67
61.248
60.473
60.247
60.415
60.796
61.209
61.552
61.802
61.953
61.99
61.887
61.598
61.097
60.383
59.453
58.305
56.93
55.322
53.506
51.531
49.473
47.412
45.406
43.492
41.697
40.045
38.559
37.261
36.158
35.248
34.536
34.033
33.756
33.721
33.937
34.406
35.125
36.086
37.286
38.721
40.387
42.277
44.388
46.717
49.264
52.031
55.017
58.215
61.618
65.217
69
72.955
77.067
81.322
85.702
90.192
94.777
99.439
104.163
108.929
113.719
118.516
123.299
128.048
132.745
137.369
141.902
146.325
150.622
154.774
158.769
162.591
166.227
169.667
172.898
175.912
178.698
181.248
183.558
185.62
187.432
188.99
190.295
191.346
192.146
192.699
193.009
193.082
192.924
192.545
191.952
191.157
190.171
189.006
187.674
186.191
184.569
182.825
180.972
179.026
177.001
174.912
172.773
170.598
168.399
166.191
163.984
161.791
159.623
157.489
155.4
153.364
151.388
149.481
147.649
145.898
144.232
142.656
141.173
139.786
138.497
137.306
136.214
135.221
134.324
133.524
132.817
132.201
131.673
131.231
130.87
130.589
130.382
130.249
130.186
130.19
130.26
130.394
130.592
130.851
131.172
131.555
132.001
132.509
133.08
133.715
134.416
135.183
136.018
136.921
137.893
138.935
140.048
141.232
142.487
143.813
145.208
146.672
148.201
149.794
151.446
153.153
154.908
156.705
158.536
160.392
162.261
164.131
165.989
167.82
169.607
171.333
172.978
174.523
175.946
177.226
178.34
179.264
179.976
180.45
180.662
180.587
180.201
179.478
178.396
176.93
175.058
172.757
170.007
166.787
163.079
158.866
154.132
148.865
143.053
136.686
129.757
122.264
114.204
105.58
96.396
86.658
76.379
65.569
54.245
42.425
30.129
17.378
4.197
-9.387
-23.345
-37.647
-52.259
-67.149
-82.28
-97.615
-113.116
-128.745
-144.462
-160.23
-176.006
-191.753
-207.43
-222.996
-238.414
-253.644
-268.646
-283.384
-297.821
-311.926
-325.668
-339.019
-351.952
-364.44
-376.46
-387.989
-399.006
-409.487
-419.41
-428.758
-437.516
-445.673
-453.223
-460.159
-466.477
-472.18
-477.27
-481.753
-485.639
-488.939
-491.666
-493.843
-495.492
-496.642
-497.313
-497.523
-497.287
-496.616
-495.523
-494.019
-492.105
-489.779
-487.04
-483.884
-480.307
-476.299
-471.821
-466.851
-461.386
-455.432
-449.046
-442.295
-435.229
-427.955
-420.609
-413.24
-405.866
-398.418
-390.71
-382.68
-374.348
-365.655
-356.635
-347.518
-338.669
-330.796
-324.694
-320.709
-319.001
-319.69
-322.62
-327.443
-333.376
-338.9
-342.486
-343.267
-340.593
-333.939
-322.947
-307.202
-286.805
-262.854
-236.608
-208.669
-180.307
-152.987
-127.422
-105.553
-87.685
-73.35
-65.888
-68.238
-83.66
-114.677
-157.29
-206.938
-261.495
-319.993
-383.445
-450.263
-512.419
-558.956
-583.078
-583.609
-565.949
-540.84
-515.193
-491.929
-472.21
-453.857
-435.852
-419.029
-404.169
-392.448
-384.445
-379.7
-376.683
-373.758
-370.162
-365.629
-360.238
-354.24
-347.528
-339.88
-331.749
-323.836
-316.501
-309.941
-304.053
-298.583
-293.513
-288.939
-284.752
-280.674
-276.485
-272.027
-267.285
-262.356
-257.274
-252.018
-246.598
-241.072
-235.522
-230.036
-224.683
-219.494
-214.506
-209.774
-205.34
-201.234
-197.479
-194.074
-191.009
-188.277
-185.863
-183.739
-181.888
-180.292
-178.925
-177.766
-176.791
-175.969
-175.273
-174.671
-174.134
-173.631
-173.137
-172.626
-172.076
-171.469
-170.786
-170.012
-169.133
-168.131
-166.991
-165.698
-164.239
-162.603
-160.782
-158.769
-156.559
-154.152
-151.548
-148.754
-145.774
-142.615
-139.285
-135.795
-132.156
-128.381
-124.483
-120.477
-116.378
-112.204
-107.97
-103.696
-99.399
-95.098
-90.809
-86.55
-82.34
-78.194
-74.13
-70.163
-66.306
-62.575
-58.982
-55.539
-52.256
-49.142
-46.204
-43.449
-40.88
-38.5
-36.309
-34.307
-32.491
-30.858
-29.402
-28.117
-26.996
-26.03
-25.212
-24.53
-23.976
-23.538
-23.207
-22.97
-22.816
-22.735
-22.714
-22.743
-22.81
-22.904
-23.014
-23.13
-23.241
-23.337
-23.409
-23.448
-23.443
-23.388
-23.275
-23.095
-22.843
-22.512
-22.097
-21.593
-20.995
-20.298
-19.5
-18.597
-17.585
-16.462
-15.225
-13.869
-12.393
-10.793
-9.065
-7.204
-5.208
-3.072
-0.791
1.64
4.224
6.968
9.874
12.949
16.196
19.619
23.223
27.01
30.984
35.146
39.499
44.044
48.78
53.709
58.827
64.134
69.627
75.302
81.155
87.18
93.37
99.718
106.214
112.848
119.608
126.481
133.453
140.507
147.626
154.792
161.984
169.183
176.365
183.509
190.591
197.588
204.474
211.225
217.817
224.225
230.425
236.393
242.107
247.544
252.683
257.502
261.984
266.108
269.859
273.22
276.178
278.72
280.834
282.511
283.745
284.53
284.863
284.743
284.171
283.15
281.686
279.786
277.461
274.721
271.58
268.054
264.159
259.916
255.343
250.463
245.296
239.867
234.2
228.318
222.248
216.013
209.639
203.151
196.575
189.935
183.258
176.566
169.883
163.232
156.636
150.113
143.684
137.365
131.173
125.122
119.224
113.492
107.934
102.557
97.369
92.372
87.571
82.965
78.555
74.338
70.31
66.466
62.801
59.306
55.974
52.796
49.762
46.863
44.089
41.429
38.873
36.408
34.024
31.707
29.447
27.234
25.059
22.916
20.803
18.718
16.661
14.633
12.636
10.67
8.738
6.839
4.968
3.123
1.306
-0.479
-2.223
-3.921
-5.571
-7.169
-8.71
-10.182
-11.575
-12.875
-14.076
-15.164
-16.114
-16.885
-17.428
-17.694
-17.65
-17.274
-16.54
-15.418
-13.875
-11.881
-9.442
-6.578
-3.322
0.285
4.208
8.419
12.845
17.358
21.881
26.405
31.022
35.932
41.294
47.162
53.56
60.534
67.981
75.656
83.13
89.694
94.715
97.786
98.757
97.803
95.522
92.752
90.59
90.566
94.153
102.804
117.755
139.456
167.624
200.96
236.997
272.954
306.745
338.022
367.567
394.926
416.506
424.506
410.946
372.865
314.022
244.737
175.967
114.52
62.715
19.456
-15.826
-42.472
-59.456
-65.773
-62.305
-51.076
-34.348
-15.133
3.79
20.686
34.459
44.759
51.943
56.425
58.764
60.032
61.428
63.723
67.278
72.046
77.677
83.871
90.368
96.762
102.599
107.617
111.734
115.034
117.749
120.085
122.198
124.262
126.416
128.732
131.262
134.025
136.995
140.154
143.481
146.942
150.515
154.178
157.892
161.611
165.273
168.812
172.161
175.254
178.046
180.507
182.615
184.356
185.725
186.725
187.362
187.653
187.607
187.23
186.533
185.528
184.233
182.668
180.856
178.821
176.585
174.167
171.587
168.862
166.005
163.031
159.951
156.775
153.513
150.178
146.781
143.334
139.848
136.332
132.794
129.242
125.681
122.114
118.545
114.973
111.399
107.822
104.242
100.656
97.064
93.463
89.851
86.225
82.583
78.923
75.241
71.536
67.804
64.042
60.25
56.426
52.571
48.684
44.766
40.82
36.849
32.856
28.845
24.822
20.793
16.765
12.745
8.742
4.766
0.828
-3.062
-6.891
-10.648
-14.318
-17.89
-21.351
-24.687
-27.887
-30.939
-33.831
-36.552
-39.092
-41.441
-43.59
-45.53
-47.255
-48.759
-50.035
-51.081
-51.893
-52.47
-52.812
-52.919
-52.793
-52.438
-51.858
-51.057
-50.044
-48.824
-47.408
-45.804
-44.023
-42.077
-39.977
-37.736
-35.367
-32.883
-30.298
-27.626
-24.88
-22.073
-19.219
-16.332
-13.424
-10.507
-7.594
-4.695
-1.823
1.013
3.803
6.539
9.211
11.813
14.337
16.778
19.13
21.389
23.551
25.613
27.573
29.428
31.178
32.822
34.36
35.793
37.122
38.347
39.471
40.494
41.419
42.248
42.983
43.625
44.177
44.641
45.018
45.312
45.522
45.652
45.703
45.677
45.574
45.397
45.147
44.826
44.436
43.979
43.455
42.868
42.22
41.512
40.748
39.929
39.06
38.144
37.184
36.186
35.153
34.091
33.006
31.905
30.794
29.68
28.571
27.477
26.405
25.365
24.368
23.423
22.542
21.736
21.017
20.396
19.885
19.496
19.24
19.129
19.173
19.383
19.77
20.343
21.111
22.082
23.265
24.666
26.291
28.145
30.231
32.552
35.109
37.903
40.932
44.194
47.687
51.406
55.347
59.502
63.865
68.427
73.177
78.103
83.192
88.428
93.797
99.28
104.861
110.52
116.24
122.001
127.784
133.569
139.336
145.066
150.738
156.333
161.831
167.211
172.455
177.545
182.464
187.195
191.726
196.041
200.127
203.974
207.569
210.902
213.961
216.738
219.223
221.412
223.302
224.893
226.19
227.2
227.933
228.399
228.609
228.574
228.306
227.812
227.098
226.169
225.034
223.706
222.196
220.518
218.681
216.696
214.574
212.329
209.976
207.53
205.007
202.419
199.79
197.152
194.547
192.033
189.653
187.435
185.415
183.626
182.111
180.917
180.062
179.525
179.268
179.237
179.379
179.673
180.068
180.463
180.818
181.119
181.448
182.028
183.034
184.533
186.544
189.044
191.845
194.701
197.206
198.672
198.484
196.194
191.616
184.941
176.808
168.112
159.951
153.89
151.582
154.627
164.248
180.841
203.995
232.819
266.008
301.397
336.175
367.038
390.768
405.093
408.387
399.365
377.368
342.804
298.113
246.911
192.112
136.74
82.235
30.232
-13.901
-46.675
-65.232
-67.329
-57.028
-37.919
-13.112
12.208
36.4
58.412
76.853
92.005
103.161
109.313
110.443
107.299
101.669
95.443
89.578
84.398
79.973
76.517
74.511
73.997
74.358
74.761
74.697
74.071
73.042
71.734
69.987
67.679
64.958
62.137
59.511
57.202
55.17
53.321
51.65
50.188
48.935
47.835
46.777
45.666
44.44
43.063
41.523
39.809
37.901
35.783
33.45
30.904
28.16
25.24
22.15
18.888
15.45
11.835
8.052
4.12
0.052
-4.134
-8.428
-12.817
-17.282
-21.805
-26.372
-30.971
-35.59
-40.223
-44.856
-49.473
-54.057
-58.59
-63.054
-67.434
-71.71
-75.866
-79.885
-83.753
-87.457
-90.988
-94.335
-97.488
-100.439
-103.179
-105.7
-107.998
-110.068
-111.905
-113.509
-114.878
-116.014
-116.921
-117.603
-118.069
-118.325
-118.382
-118.25
-117.941
-117.47
-116.85
-116.098
-115.23
-114.264
-113.219
-112.113
-110.967
-109.801
-108.634
-107.487
-106.379
-105.328
-104.354
-103.474
-102.705
-102.064
-101.568
-101.23
-101.066
-101.088
-101.31
-101.741
-102.392
-103.271
-104.387
-105.745
-107.35
-109.205
-111.313
-113.674
-116.287
-119.152
-122.264
-125.621
-129.216
-133.043
-137.095
-141.364
-145.841
-150.516
-155.378
-160.417
-165.621
-170.978
-176.476
-182.102
-187.844
-193.688
-199.621
-205.629
-211.699
-217.817
-223.969
-230.14
-236.316
-242.484
-248.628
-254.734
-260.787
-266.775
-272.682
-278.495
-284.201
-289.786
-295.237
-300.543
-305.69
-310.668
-315.466
-320.072
-324.477
-328.671
-332.646
-336.395
-339.908
-343.18
-346.205
-348.977
-351.493
-353.747
-355.739
-357.466
-358.927
-360.124
-361.057
-361.73
-362.147
-362.312
-362.234
-361.919
-361.376
-360.617
-359.651
-358.491
-357.15
-355.642
-353.982
-352.185
-350.267
-348.244
-346.134
-343.952
-341.716
-339.442
-337.148
-334.849
-332.561
-330.301
-328.083
-325.921
-323.831
-321.824
-319.913
-318.108
-316.421
-314.859
-313.431
-312.141
-310.994
-309.993
-309.138
-308.43
-307.865
-307.44
-307.148
-306.984
-306.937
-306.998
-307.156
-307.399
-307.711
-308.081
-308.491
-308.926
-309.371
-309.808
-310.222
-310.595
-310.911
-311.155
-311.308
-311.357
-311.286
-311.08
-310.724
-310.204
-309.508
-308.623
-307.539
-306.245
-304.734
-303
-301.036
-298.841
-296.414
-293.756
-290.869
-287.757
-284.426
-280.883
-277.137
-273.199
-269.078
-264.788
-260.342
-255.754
-251.039
-246.214
-241.294
-236.296
-231.235
-226.128
-220.991
-215.839
-210.686
-205.55
-200.444
-195.386
-190.391
-185.475
-180.652
-175.935
-171.336
-166.861
-162.515
-158.297
-154.206
-150.241
-146.399
-142.677
-139.07
-135.575
-132.191
-128.917
-125.748
-122.676
-119.692
-116.786
-113.952
-111.19
-108.498
-105.87
-103.299
-100.774
-98.285
-95.82
-93.359
-90.872
-88.32
-85.653
-82.832
-79.835
-76.632
-73.19
-69.469
-65.412
-60.99
-56.213
-51.11
-45.724
-40.109
-34.299
-28.364
-22.425
-16.529
-10.666
-4.75
1.41
7.956
14.913
22.287
30.083
38.076
45.898
53.104
59.122
63.539
66.186
67.034
66.152
64.099
61.882
60.52
61.029
64.282
70.982
81.793
97.442
118.037
142.732
170.641
200.999
232.84
264.822
295.04
320.871
339.866
350.644
351.799
341.395
318.726
284.756
241.188
191.045
135.193
71.196
-0.142
-75.036
-144.864
-196.399
-223.102
-223.528
-201.481
-166.889
-124.785
-79.684
-36.45
3.832
36.623
59.636
74.865
82.961
87.153
89.203
87.167
80.999
70.859
57.891
45.715
36.387
30.423
28.054
28.633
31.483
36.412
42.81
49.595
56.128
62.089
67.311
71.994
76.317
80.303
84.133
88.098
92.333
96.883
101.715
106.671
111.641
116.575
121.393
126.02
130.418
134.579
138.54
142.347
146.025
149.567
152.942
156.144
159.176
162.05
164.806
167.449
169.963
172.333
174.536
176.547
178.353
179.909
181.133
182
182.524
182.771
182.88
182.943
183.016
183.142
183.335
183.631
184.104
184.807
185.782
187.09
188.779
190.943
193.732
197.209
201.372
206.154
211.397
216.987
222.86
228.946
235.191
241.534
247.888
254.197
260.434
266.542
272.452
278.055
283.185
287.747
291.701
295.051
297.867
300.188
302.015
303.366
304.256
304.696
304.701
304.258
303.323
301.882
299.94
297.523
294.692
291.48
287.891
283.92
279.539
274.736
269.514
263.87
257.797
251.303
244.401
237.123
229.522
221.64
213.51
205.163
196.622
187.92
179.093
170.18
161.221
152.255
143.32
134.456
125.704
117.104
108.686
100.479
92.502
84.777
77.324
70.162
63.307
56.771
50.566
44.702
39.191
34.037
29.245
24.814
20.744
17.029
13.664
10.641
7.951
5.581
3.521
1.756
0.271
-0.948
-1.919
-2.657
-3.18
-3.506
-3.653
-3.639
-3.481
-3.198
-2.806
-2.322
-1.761
-1.138
-0.467
0.24
0.969
1.711
2.454
3.188
3.902
4.588
5.238
5.844
6.399
6.896
7.329
7.692
7.981
8.189
8.313
8.347
8.286
8.126
7.86
7.485
6.996
6.388
5.656
4.796
3.802
2.67
1.395
-0.029
-1.606
-3.341
-5.24
-7.306
-9.545
-11.96
-14.555
-17.332
-20.293
-23.439
-26.77
-30.286
-33.982
-37.858
-41.906
-46.12
-50.493
-55.015
-59.674
-64.46
-69.357
-74.351
-79.425
-84.563
-89.745
-94.953
-100.167
-105.364
-110.524
-115.625
-120.643
-125.555
-130.34
-134.973
-139.432
-143.695
-147.74
-151.546
-155.091
-158.358
-161.326
-163.98
-166.305
-168.288
-169.918
-171.189
-172.094
-172.634
-172.808
-172.621
-172.078
-171.189
-169.962
-168.413
-166.555
-164.407
-161.988
-159.319
-156.426
-153.332
-150.067
-146.657
-143.133
-139.522
-135.853
-132.158
-128.465
-124.804
-121.206
-117.701
-114.32
-111.09
-108.039
-105.193
-102.573
-100.198
-98.084
-96.241
-94.678
-93.401
-92.415
-91.723
-91.327
-91.224
-91.409
-91.881
-92.637
-93.676
-94.999
-96.601
-98.481
-100.636
-103.061
-105.749
-108.682
-111.834
-115.168
-118.646
-122.228
-125.879
-129.563
-133.229
-136.813
-140.232
-143.386
-146.192
-148.573
-150.452
-151.778
-152.518
-152.657
-152.257
-151.451
-150.313
-148.852
-146.979
-144.479
-141.21
-137.163
-132.324
-126.629
-120.163
-113.27
-106.672
-101.468
-98.591
-98.556
-101.632
-108.025
-117.735
-130.229
-144.206
-157.64
-168.531
-175.424
-177.226
-172.842
-161.202
-141.816
-115.112
-82.511
-45.802
-6.537
33.67
72.671
107.871
136.636
156.681
166.502
164.861
151.376
127.269
94.475
55.705
11.833
-39.063
-96.985
-159.878
-220.717
-266.63
-289.03
-283.641
-252.858
-209.365
-165.034
-130.413
-112.643
-109.146
-114.676
-122.752
-127.443
-127.923
-125.69
-123.087
-121.813
-121.778
-122.107
-121.656
-120.074
-117.756
-115.166
-112.887
-111.317
-110.466
-110.271
-110.614
-111.228
-111.881
-112.447
-112.831
-112.992
-112.953
-112.724
-112.31
-111.75
-111.062
-110.242
-109.286
-108.175
-106.895
-105.464
-103.92
-102.316
-100.731
-99.214
-97.785
-96.455
-95.219
-94.064
-92.984
-91.961
-90.966
-89.983
-89.005
-88.026
-87.05
-86.067
-85.061
-84.012
-82.896
-81.691
-80.38
-78.947
-77.375
-75.651
-73.767
-71.716
-69.497
-67.109
-64.547
-61.805
-58.879
-55.765
-52.464
-48.975
-45.297
-41.435
-37.394
-33.18
-28.806
-24.282
-19.619
-14.831
-9.932
-4.937
0.139
5.281
10.472
15.697
20.939
26.18
31.403
36.591
41.725
46.788
51.764
56.634
61.385
66.001
70.469
74.776
78.911
82.864
86.624
90.185
93.538
96.68
99.605
102.311
104.798
107.067
109.119
110.96
112.594
114.027
115.268
116.324
117.205
117.92
118.481
118.899
119.186
119.353
119.415
119.384
119.273
119.096
118.867
118.598
118.303
117.994
117.685
117.387
117.112
116.87
116.673
116.529
116.447
116.435
116.501
116.649
116.885
117.213
117.636
118.156
118.775
119.492
120.308
121.221
122.229
123.331
124.522
125.799
127.158
128.593
130.1
131.673
133.304
134.988
136.717
138.483
140.277
142.091
143.916
145.741
147.557
149.354
151.122
152.849
154.525
156.139
157.682
159.141
160.506
161.766
162.911
163.93
164.814
165.551
166.133
166.549
166.79
166.847
166.711
166.373
165.826
165.061
164.07
162.849
161.39
159.689
157.741
155.545
153.097
150.397
147.445
144.243
140.793
137.1
133.167
129.003
124.613
120.007
115.195
110.187
104.998
99.639
94.124
88.47
82.692
76.806
70.83
64.783
58.683
52.551
46.407
40.272
34.167
28.114
22.133
16.245
10.47
4.829
-0.662
-5.982
-11.117
-16.049
-20.764
-25.248
-29.489
-33.475
-37.198
-40.65
-43.824
-46.716
-49.324
-51.645
-53.682
-55.434
-56.906
-58.1
-59.022
-59.679
-60.079
-60.231
-60.147
-59.839
-59.323
-58.614
-57.727
-56.681
-55.49
-54.172
-52.743
-51.217
-49.613
-47.944
-46.226
-44.474
-42.703
-40.928
-39.163
-37.421
-35.713
-34.049
-32.441
-30.894
-29.414
-28.005
-26.668
-25.408
-24.227
-23.125
-22.096
-21.139
-20.249
-19.421
-18.65
-17.926
-17.237
-16.572
-15.919
-15.269
-14.617
-13.954
-13.271
-12.562
-11.826
-11.07
-10.315
-9.57
-8.833
-8.093
-7.328
-6.521
-5.659
-4.713
-3.646
-2.434
-1.057
0.488
2.175
4.004
5.992
8.175
10.624
13.398
16.504
19.919
23.588
27.409
31.276
35.066
38.579
41.628
44.156
46.21
47.973
49.713
51.586
53.635
55.941
58.543
61.242
63.699
65.333
65.349
63.264
58.833
51.788
42.182
30.558
17.749
5.117
-5.55
-12.814
-15.224
-11.09
0.631
20.237
47.338
80.548
117.892
157.323
196.073
230.615
257.684
274.505
279.094
270.47
248.196
212.42
164.569
107.302
43.922
-21.888
-86.442
-146.217
-197.845
-238.417
-266.138
-280.258
-280.735
-268.518
-245.605
-214.688
-178.862
-141.323
-104.604
-70.909
-42.759
-21.991
-9.24
-4.428
-6.674
-14.709
-27.798
-44.935
-63.975
-82.723
-99.425
-112.519
-121.342
-125.61
-124.527
-117.798
-106.202
-90.931
-73.498
-55.621
-38.277
-22.131
-8.173
3.054
11.551
17.574
21.872
25.423
28.732
32.097
35.9
40.256
45.169
50.627
56.35
61.971
67.33
72.358
77.009
81.346
85.392
89.124
92.586
95.822
98.835
101.625
104.168
106.423
108.379
110.041
111.419
112.533
113.403
114.04
114.461
114.679
114.711
114.58
114.311
113.928
113.459
112.929
112.37
111.809
111.275
110.788
110.365
110.018
109.762
109.607
109.566
109.651
109.869
110.227
110.732
111.39
112.205
113.18
114.313
115.602
117.045
118.636
120.37
122.237
124.227
126.33
128.532
130.821
133.182
135.599
138.057
140.539
143.027
145.504
147.953
150.357
152.696
154.956
157.118
159.169
161.094
162.879
164.511
165.977
167.267
168.371
169.28
169.984
170.478
170.755
170.81
170.64
170.244
169.62
168.77
167.696
166.4
164.887
163.164
161.237
159.114
156.803
154.315
151.659
148.847
145.89
142.801
139.592
136.277
132.867
129.378
125.822
122.213
118.563
114.888
111.2
107.512
103.838
100.19
96.58
93.022
89.528
86.108
82.774
79.538
76.409
73.398
70.515
67.767
65.166
62.718
60.431
58.315
56.376
54.622
53.06
51.697
50.54
49.594
48.867
48.365
48.092
48.055
48.259
48.708
49.408
50.362
51.575
53.05
54.791
56.798
59.075
61.623
64.441
67.53
70.887
74.511
78.399
82.546
86.949
91.6
96.491
101.615
106.959
112.513
118.26
124.186
130.273
136.501
142.851
149.301
155.827
162.405
169.011
175.618
182.197
188.72
195.158
201.478
207.65
213.643
219.424
224.962
230.227
235.187
239.814
244.079
247.954
251.414
254.43
256.979
259.038
260.59
261.619
262.112
262.059
261.452
260.29
258.575
256.31
253.501
250.154
246.281
241.895
237.013
231.657
225.844
219.594
212.927
205.863
198.431
190.665
182.601
174.282
165.751
157.056
148.249
139.384
130.505
121.665
112.906
104.272
95.823
87.623
79.737
72.254
65.231
58.69
52.633
47.019
41.805
36.986
32.519
28.327
24.411
20.8
17.623
15.138
13.426
12.387
11.923
11.899
12.107
12.371
12.289
11.213
8.914
5.567
1.473
-2.871
-6.897
-10.097
-11.614
-10.214
-5.16
3.728
16.396
32.46
51.278
72.085
93.599
114.005
131.908
146.38
156.565
161.868
162.138
157.625
149.202
138.198
125.438
111.357
96.635
81.929
67.549
53.389
38.822
23.194
6.716
-9.807
-25.855
-41.007
-54.723
-66.226
-74.342
-78.15
-77.716
-73.811
-67.142
-58.339
-47.991
-36.718
-25.479
-15.084
-5.683
3.021
11.395
19.84
28.582
37.609
47.06
56.972
66.965
76.612
85.366
92.406
97.199
99.57
99.444
97.174
93.554
89.179
84.977
82.37
82.459
86.426
95.335
109.19
127.649
149.833
173.243
195.962
216.772
234.451
249.386
259.131
257.923
241.063
204.517
149.659
83.568
10.647
-66.625
-146.227
-227.54
-303.044
-360.482
-393.674
-399.306
-381.324
-351.724
-316.593
-281.416
-251.45
-226.215
-208.791
-200.752
-199.018
-201.825
-205.271
-206.476
-206.28
-205.167
-203.866
-202.248
-198.341
-191.288
-181.308
-169.251
-156.767
-144.695
-133.086
-122.075
-111.785
-102.306
-93.696
-85.673
-77.652
-69.29
-60.493
-51.256
-41.682
-31.816
-21.636
-11.201
-0.645
9.908
20.355
30.637
40.743
50.633
60.236
69.464
78.213
86.407
94.006
100.974
107.293
112.94
117.897
122.158
125.736
128.644
130.896
132.501
133.463
133.797
133.529
132.69
131.321
129.453
127.118
124.347
121.173
117.629
113.748
109.562
105.097
100.383
95.454
90.342
85.08
79.701
74.234
68.709
63.156
57.599
52.065
46.576
41.152
35.811
30.568
25.437
20.431
15.557
10.824
6.236
1.797
-2.491
-6.628
-10.617
-14.461
-18.167
-21.741
-25.193
-28.534
-31.777
-34.934
-38.02
-41.049
-44.034
-46.99
-49.93
-52.87
-55.824
-58.807
-61.834
-64.92
-68.082
-71.335
-74.697
-78.181
-81.799
-85.563
-89.482
-93.563
-97.811
-102.23
-106.818
-111.577
-116.512
-121.626
-126.922
-132.405
-138.075
-143.936
-149.986
-156.22
-162.63
-169.204
-175.921
-182.767
-189.73
-196.805
-203.993
-211.289
-218.68
-226.156
-233.691
-241.254
-248.801
-256.267
-263.578
-270.684
-277.541
-284.125
-290.435
-296.47
-302.237
-307.748
-312.986
-317.936
-322.589
-326.924
-330.945
-334.689
-338.208
-341.61
-345.026
-348.549
-352.27
-356.242
-360.45
-364.866
-369.399
-373.925
-378.375
-382.693
-386.83
-390.737
-394.296
-397.354
-399.771
-401.355
-401.908
-401.227
-399.021
-395.162
-389.735
-382.856
-374.791
-365.732
-355.583
-344.397
-332.446
-319.756
-306.278
-291.992
-276.628
-260.441
-244.346
-228.94
-214.619
-201.958
-191.403
-183.491
-179.001
-177.886
-179.314
-182.746
-187.762
-193.888
-200.799
-207.889
-214.275
-219.695
-224.455
-228.694
-232.451
-235.683
-238.175
-239.941
-241.256
-242.177
-242.516
-242.141
-240.964
-239.013
-236.497
-233.581
-230.301
-226.704
-222.874
-218.889
-214.872
-210.907
-206.998
-203.131
-199.299
-195.496
-191.733
-188.019
-184.319
-180.591
-176.783
-172.839
-168.733
-164.457
-160.007
-155.382
-150.586
-145.625
-140.523
-135.314
-130.026
-124.678
-119.287
-113.864
-108.436
-103.032
-97.682
-92.414
-87.251
-82.213
-77.321
-72.592
-68.04
-63.675
-59.507
-55.541
-51.785
-48.251
-44.949
-41.889
-39.079
-36.527
-34.237
-32.216
-30.464
-28.985
-27.777
-26.84
-26.173
-25.773
-25.641
-25.775
-26.173
-26.83
-27.74
-28.899
-30.297
-31.927
-33.78
-35.844
-38.108
-40.559
-43.188
-45.984
-48.936
-52.031
-55.256
-58.596
-62.038
-65.569
-69.174
-72.835
-76.534
-80.256
-83.994
-87.749
-91.531
-95.342
-99.183
-103.047
-106.923
-110.786
-114.595
-118.302
-121.846
-125.178
-128.267
-131.087
-133.636
-135.915
-137.908
-139.583
-140.882
-141.73
-142.072
-141.885
-141.162
-139.959
-138.392
-136.58
-134.72
-133.043
-131.642
-130.513
-129.516
-128.346
-126.766
-124.718
-122.073
-118.676
-114.676
-110.419
-106.577
-104.153
-103.77
-105.575
-109.711
-116.315
-125.006
-134.962
-144.738
-152.209
-155.726
-154.296
-146.805
-132.028
-109.402
-78.99
-41.749
0.202
44.975
91.083
136.268
177.596
212.431
238.37
253.579
257.223
248.158
225.205
189.414
143.83
91.421
34.774
-25.589
-90.378
-156.994
-219.153
-268.47
-297.968
-304.477
-289.914
-260.559
-221.434
-179.028
-140.227
-107.96
-86.664
-76.831
-73.992
-75.857
-78.295
-78.958
-79.758
-81.107
-83.597
-87.486
-90.764
-92.105
-91.399
-88.933
-85.828
-83.207
-81.369
-80.31
-80.061
-80.697
-82.249
-84.633
-87.56
-90.566
-93.379
-95.928
-98.183
-100.159
-101.85
-103.221
-104.281
-105.112
-105.782
-106.328
-106.781
-107.137
-107.412
-107.651
-107.886
-108.137
-108.418
-108.721
-109.034
-109.351
-109.661
-109.952
-110.219
-110.456
-110.656
-110.815
-110.933
-111.002
-111.019
-110.973
-110.854
-110.655
-110.374
-110.01
-109.568
-109.054
-108.475
-107.839
-107.156
-106.43
-105.667
-104.87
-104.045
-103.196
-102.326
-101.441
-100.547
-99.65
-98.758
-97.876
-97.011
-96.168
-95.349
-94.559
-93.799
-93.07
-92.374
-91.71
-91.077
-90.475
-89.902
-89.356
-88.835
-88.336
-87.855
-87.387
-86.928
-86.472
-86.014
-85.548
-85.068
-84.568
-84.043
-83.486
-82.894
-82.261
-81.581
-80.85
-80.063
-79.218
-78.308
-77.333
-76.287
-75.171
-73.983
-72.722
-71.39
-69.987
-68.517
-66.981
-65.385
-63.733
-62.03
-60.283
-58.498
-56.683
-54.846
-52.996
-51.142
-49.293
-47.46
-45.653
-43.88
-42.154
-40.483
-38.877
-37.347
-35.9
-34.547
-33.294
-32.15
-31.121
-30.215
-29.435
-28.787
-28.273
-27.897
-27.659
-27.559
-27.597
-27.77
-28.075
-28.507
-29.062
-29.732
-30.509
-31.385
-32.349
-33.392
-34.501
-35.664
-36.867
-38.098
-39.341
-40.582
-41.806
-42.997
-44.141
-45.222
-46.226
-47.136
-47.94
-48.622
-49.169
-49.569
-49.809
-49.879
-49.768
-49.467
-48.969
-48.265
-47.35
-46.22
-44.872
-43.304
-41.515
-39.505
-37.277
-34.834
-32.18
-29.322
-26.265
-23.017
-19.589
-15.988
-12.227
-8.317
-4.271
-0.101
4.18
8.555
13.013
17.537
22.115
26.73
31.368
36.016
40.659
45.283
49.876
54.423
58.914
63.335
67.677
71.928
76.08
80.125
84.055
87.863
91.545
95.095
98.509
101.785
104.92
107.912
110.76
113.466
116.031
118.455
120.743
122.899
124.926
126.83
128.615
130.288
131.852
133.312
134.675
135.945
137.127
138.225
139.248
140.199
141.085
141.911
142.683
143.404
144.078
144.708
145.294
145.837
146.338
146.796
147.21
147.58
147.905
148.183
148.411
148.584
148.697
148.745
148.718
148.608
148.403
148.091
147.664
147.112
146.424
145.593
144.611
143.474
142.178
140.718
139.083
137.266
135.254
133.036
130.602
127.938
125.033
121.882
118.482
114.838
110.959
106.848
102.509
97.942
93.14
88.101
82.829
77.329
71.61
65.694
59.618
53.435
47.218
41.019
34.873
28.804
22.822
16.936
11.154
5.477
-0.089
-5.531
-10.826
-15.941
-20.836
-25.51
-29.987
-34.34
-38.682
-43.09
-47.603
-52.233
-56.98
-61.848
-66.829
-71.868
-76.86
-81.689
-86.31
-90.766
-95.048
-98.995
-102.296
-104.542
-105.426
-104.901
-102.938
-99.324
-93.956
-87.006
-79.026
-70.898
-63.235
-55.97
-48.749
-41.515
-34.124
-26.036
-16.208
-3.011
14.992
38.048
65.651
97.731
133.241
170.37
207.747
242.311
272.192
296.964
313.19
317.93
308.025
280.759
239.828
190.113
136.547
84.679
36.14
-6.981
-41.349
-65.771
-79.308
-80.905
-70.583
-47.845
-11.463
35.034
84.714
131.007
166.282
188.215
200.205
205.196
207.269
208.548
207.573
204.218
198.982
192.823
188.217
186.611
188.229
192.818
199.454
207.198
215.315
223.305
230.815
237.585
243.553
248.749
253.305
257.503
261.69
266.043
270.632
275.475
280.5
285.678
291.008
296.41
301.779
307.028
312.084
316.927
321.585
326.066
330.366
334.487
338.421
342.18
345.793
349.269
352.609
355.806
358.848
361.734
364.474
367.077
369.551
371.903
374.138
376.264
378.293
380.237
382.101
383.893
385.612
387.264
388.855
390.396
391.896
393.365
394.813
396.249
397.685
399.13
400.591
402.075
403.586
405.129
406.708
408.327
409.991
411.702
413.465
415.284
417.161
419.099
421.099
423.165
425.295
427.491
429.751
432.076
434.463
436.911
439.419
441.984
444.606
447.281
450.007
452.779
455.594
458.448
461.336
464.253
467.193
470.15
473.119
476.093
479.067
482.033
484.986
487.918
490.822
493.69
496.514
499.286
501.998
504.641
507.206
509.683
512.065
514.341
516.502
518.538
520.44
522.198
523.801
525.241
526.508
527.591
528.481
529.17
529.647
529.905
529.935
529.729
529.281
528.583
527.631
526.419
524.944
523.201
521.188
518.904
516.347
513.517
510.416
507.044
503.404
499.5
495.335
490.915
486.245
481.332
476.184
470.809
465.215
459.413
453.412
447.224
440.859
434.33
427.65
420.831
413.887
406.832
399.68
392.445
385.141
377.783
370.383
362.956
355.515
348.073
340.644
333.239
325.872
318.554
311.297
304.112
297.008
289.997
283.088
276.289
269.608
263.054
256.633
250.352
244.217
238.234
232.408
226.743
221.242
215.908
210.744
205.75
200.928
196.277
191.795
187.483
183.339
179.359
175.542
171.885
168.383
165.034
161.833
158.774
155.853
153.063
150.399
147.854
145.421
143.094
140.868
138.734
136.685
134.716
132.817
130.982
129.203
127.47
125.776
124.113
122.473
120.847
119.231
117.615
115.995
114.363
112.716
111.046
109.348
107.616
105.844
104.027
102.16
100.237
98.255
96.209
94.096
91.914
89.659
87.331
84.924
82.437
79.865
77.204
74.452
71.604
68.658
65.61
62.459
59.203
55.84
52.369
48.786
45.089
41.271
37.328
33.252
29.036
24.672
20.153
15.474
10.63
5.618
0.434
-4.921
-10.446
-16.144
-22.016
-28.066
-34.3
-40.721
-47.33
-54.13
-61.121
-68.302
-75.671
-83.221
-90.943
-98.827
-106.871
-115.078
-123.458
-132.014
-140.738
-149.619
-158.644
-167.8
-177.063
-186.394
-195.732
-205.012
-214.185
-223.219
-232.106
-240.831
-249.374
-257.707
-265.794
-273.63
-281.218
-288.552
-295.608
-302.344
-308.756
-314.911
-320.944
-327.019
-333.26
-339.722
-346.456
-353.542
-360.968
-368.661
-376.445
-383.981
-391.008
-397.408
-403.035
-407.809
-411.862
-415.421
-418.875
-422.772
-427.428
-432.972
-439.603
-447.344
-455.778
-464.035
-470.755
-474.541
-474.407
-469.593
-459.335
-442.752
-419.35
-389.776
-355.494
-318.59
-281.684
-246.261
-213.449
-184.346
-158.536
-137.966
-126.916
-129.767
-151.902
-193.471
-248.265
-309.035
-368.736
-424.52
-478.448
-532.195
-583.459
-627.261
-657.962
-670.465
-666.133
-650.991
-630.524
-611.69
-598.033
-588.1
-581.143
-576.241
-572.648
-571.636
-573.617
-577.09
-580.551
-582.941
-583.595
-582.596
-580.358
-576.846
-572.011
-566.562
-561.179
-556.201
-551.91
-548.217
-544.869
-541.88
-539.26
-536.729
-534.037
-531.023
-527.535
-523.599
-519.271
-514.512
-509.304
-503.677
-497.665
-491.321
-484.706
-477.849
-470.786
-463.584
-456.31
-449.046
-441.875
-434.859
-428.048
-421.484
-415.203
-409.236
-403.609
-398.343
-393.449
-388.939
-384.829
-381.131
-377.854
-375.004
-372.582
-370.581
-368.992
-367.806
-367.014
-366.606
-366.573
-366.904
-367.583
-368.599
-369.935
-371.574
-373.491
-375.66
-378.051
-380.632
-383.371
-386.234
-389.185
-392.186
-395.201
-398.192
-401.123
-403.954
-406.649
-409.168
-411.474
-413.528
-415.296
-416.741
-417.829
-418.529
-418.808
-418.641
-418
-416.864
-415.21
-413.023
-410.287
-406.989
-403.123
-398.683
-393.667
-388.077
-381.92
-375.204
-367.943
-360.153
-351.856
-343.073
-333.834
-324.167
-314.105
-303.683
-292.938
-281.912
-270.646
-259.183
-247.569
-235.851
-224.077
-212.295
-200.554
-188.903
-177.392
-166.068
-154.979
-144.171
-133.689
-123.576
-113.875
-104.622
-95.857
-87.612
-79.919
-72.805
-66.297
-60.416
-55.18
-50.603
-46.696
-43.466
-40.918
-39.05
-37.859
-37.338
-37.475
-38.257
-39.665
-41.679
-44.275
-47.426
-51.103
-55.274
-59.905
-64.961
-70.403
-76.193
-82.292
-88.658
-95.25
-102.026
-108.946
-115.966
-123.048
-130.148
-137.229
-144.252
-151.179
-157.974
-164.603
-171.034
-177.236
-183.181
-188.841
-194.193
-199.215
-203.887
-208.191
-212.112
-215.639
-218.762
-221.473
-223.767
-225.643
-227.098
-228.136
-228.761
-228.977
-228.793
-228.218
-227.262
-225.937
-224.257
-222.235
-219.888
-217.231
-214.281
-211.055
-207.572
-203.849
-199.904
-195.756
-191.423
-186.923
-182.275
-177.498
-172.609
-167.626
-162.567
-157.448
-152.287
-147.098
-141.897
-136.696
-131.51
-126.35
-121.229
-116.157
-111.145
-106.202
-101.338
-96.562
-91.881
-87.302
-82.832
-78.478
-74.243
-70.134
-66.154
-62.309
-58.601
-55.035
-51.614
-48.343
-45.224
-42.261
-39.454
-36.806
-34.316
-31.986
-29.815
-27.804
-25.951
-24.258
-22.724
-21.351
-20.139
-19.088
-18.199
-17.471
-16.902
-16.492
-16.239
-16.141
-16.196
-16.402
-16.758
-17.262
-17.915
-18.716
-19.662
-20.753
-21.988
-23.363
-24.874
-26.514
-28.276
-30.153
-32.138
-34.224
-36.405
-38.673
-41.023
-43.447
-45.942
-48.496
-51.096
-53.73
-56.38
-59.033
-61.677
-64.295
-66.874
-69.41
-71.897
-74.336
-76.736
-79.089
-81.382
-83.598
-85.706
-87.68
-89.496
-91.117
-92.502
-93.628
-94.48
-95.056
-95.371
-95.406
-95.129
-94.511
-93.504
-92.082
-90.247
-88
-85.347
-82.338
-79.045
-75.578
-72.105
-68.737
-65.503
-62.428
-59.527
-56.779
-54.158
-51.559
-48.706
-45.365
-41.488
-37.038
-32.035
-26.661
-21.013
-15.31
-10.178
-6.213
-3.65
-2.547
-2.571
-2.876
-2.857
-1.775
1.801
9.398
22.271
41.275
66.38
96.615
131.215
169.358
209.265
248.44
283.912
312.804
332.929
342.992
341.583
326.857
298.579
258.71
209.974
155.647
96.748
31.39
-39.342
-111.177
-175.641
-220.62
-239.875
-232.922
-205.028
-167.58
-128.475
-92.021
-59.948
-29.761
-0.913
24.589
44.697
57.123
61.361
59.031
52.197
42.624
31.889
21.633
13.308
7.866
5.728
6.65
9.943
15.061
21.417
28.165
34.672
40.584
45.704
50.125
54.098
57.801
61.466
65.418
69.831
74.768
80.252
86.199
92.524
99.179
106.073
113.103
120.202
127.313
134.412
141.514
148.62
155.72
162.815
169.899
176.978
184.067
191.17
198.278
205.384
212.481
219.567
226.645
233.715
240.781
247.843
254.905
261.97
269.041
276.119
283.208
290.304
297.404
304.506
311.611
318.719
325.834
332.958
340.09
347.232
354.385
361.546
368.715
375.884
383.049
390.202
397.337
404.445
411.52
418.553
425.537
432.461
439.316
446.092
452.778
459.361
465.828
472.165
478.359
484.395
490.259
495.937
501.415
506.68
511.717
516.514
521.059
525.34
529.346
533.067
536.493
539.617
542.433
544.935
547.119
548.984
550.529
551.753
552.658
553.248
553.526
553.497
553.168
552.545
551.637
550.454
549.005
547.302
545.356
543.181
540.788
538.193
535.407
532.445
529.321
526.046
522.634
519.097
515.446
511.693
507.845
503.913
499.902
495.819
491.67
487.457
483.182
478.849
474.455
470.002
465.486
460.905
456.255
451.532
446.731
441.845
436.868
431.794
426.615
421.324
415.913
410.376
404.703
398.889
392.927
386.81
380.533
374.091
367.48
360.697
353.741
346.612
339.31
331.839
324.202
316.405
308.454
300.357
292.124
283.765
275.292
266.716
258.052
249.314
240.517
231.677
222.81
213.933
205.063
196.215
187.408
178.657
169.978
161.389
152.905
144.54
136.311
128.231
120.313
112.569
105.012
97.651
90.495
83.551
76.826
70.325
64.052
58.009
52.199
46.622
41.278
36.165
31.281
26.623
22.185
17.963
13.951
10.143
6.533
3.113
-0.122
-3.178
-6.062
-8.781
-11.341
-13.748
-16.01
-18.134
-20.124
-21.988
-23.731
-25.359
-26.874
-28.282
-29.585
-30.785
-31.884
-32.885
-33.788
-34.596
-35.309
-35.929
-36.457
-36.892
-37.235
-37.483
-37.636
-37.693
-37.651
-37.512
-37.274
-36.94
-36.511
-35.99
-35.382
-34.688
-33.913
-33.06
-32.131
-31.132
-30.065
-28.937
-27.752
-26.518
-25.245
-23.941
-22.619
-21.289
-19.962
-18.652
-17.369
-16.123
-14.924
-13.781
-12.704
-11.703
-10.79
-9.973
-9.264
-8.673
-8.212
-7.891
-7.722
-7.71
-7.86
-8.174
-8.658
-9.315
-10.151
-11.165
-12.362
-13.748
-15.336
-17.154
-19.221
-21.542
-24.119
-26.94
-29.98
-33.221
-36.632
-40.169
-43.793
-47.481
-51.224
-55.037
-58.936
-62.915
-66.934
-70.926
-74.824
-78.568
-82.121
-85.479
-88.671
-91.762
-94.866
-98.13
-101.713
-105.748
-110.23
-115.028
-119.913
-124.607
-128.947
-132.88
-136.294
-139.108
-141.491
-143.812
-146.678
-150.782
-156.44
-163.716
-172.723
-183.456
-195.575
-208.3
-220.306
-230.161
-236.759
-239.034
-235.854
-226.205
-209.443
-185.892
-156.763
-123.299
-86.968
-49.896
-14.597
16.03
39.032
52.534
55.53
46.649
25.74
-5.422
-45.458
-92.418
-144.514
-202.011
-261.564
-316.116
-359.018
-383.207
-387.164
-375.573
-353.032
-324.842
-294.004
-260.596
-226.135
-192.352
-161.456
-136.534
-119.251
-109.963
-108.137
-112.004
-119.569
-129.084
-138.815
-147.412
-153.807
-157.284
-157.711
-155.482
-151.281
-145.921
-140.223
-134.705
-129.78
-125.765
-122.748
-120.709
-119.499
-118.826
-118.37
-117.974
-117.573
-117.143
-116.736
-116.364
-116.058
-115.907
-116.023
-116.5
-117.374
-118.636
-120.251
-122.191
-124.443
-126.993
-129.821
-132.888
-136.164
-139.63
-143.275
-147.095
-151.083
-155.216
-159.471
-163.823
-168.249
-172.731
-177.247
-181.772
-186.281
-190.751
-195.161
-199.494
-203.734
-207.86
-211.854
-215.695
-219.361
-222.834
-226.096
-229.127
-231.91
-234.43
-236.674
-238.632
-240.296
-241.658
-242.712
-243.453
-243.876
-243.979
-243.758
-243.211
-242.337
-241.138
-239.615
-237.77
-235.609
-233.136
-230.36
-227.287
-223.927
-220.289
-216.381
-212.214
-207.798
-203.145
-198.266
-193.174
-187.88
-182.398
-176.74
-170.922
-164.955
-158.853
-152.63
-146.297
-139.867
-133.354
-126.77
-120.128
-113.44
-106.718
-99.975
-93.224
-86.476
-79.744
-73.037
-66.368
-59.746
-53.183
-46.687
-40.269
-33.938
-27.702
-21.57
-15.55
-9.651
-3.879
1.758
7.254
12.602
17.797
22.833
27.706
32.411
36.944
41.302
45.483
49.485
53.306
56.946
60.405
63.683
66.782
69.704
72.451
75.026
77.433
79.675
81.756
83.682
85.457
87.087
88.578
89.935
91.165
92.274
93.269
94.157
94.943
95.637
96.243
96.769
97.223
97.61
97.936
98.209
98.433
98.613
98.755
98.863
98.939
98.988
99.011
99.01
98.988
98.944
98.88
98.795
98.689
98.561
98.41
98.235
98.033
97.803
97.542
97.249
96.921
96.556
96.151
95.704
95.213
94.675
94.088
93.451
92.76
92.016
91.216
90.361
89.449
88.483
87.462
86.39
85.267
84.099
82.887
81.636
80.35
79.034
77.694
76.335
74.962
73.583
72.203
70.828
69.466
68.121
66.799
65.507
64.249
63.029
61.852
60.723
59.644
58.62
57.654
56.749
55.906
55.128
54.414
53.766
53.182
52.658
52.193
51.781
51.417
51.095
50.808
50.551
50.315
50.092
49.873
49.65
49.413
49.152
48.859
48.522
48.133
47.681
47.158
46.557
45.87
45.092
44.216
43.238
42.153
40.957
39.647
38.218
36.668
34.995
33.198
31.277
29.24
27.093
24.848
22.517
20.113
17.649
15.139
12.596
10.031
7.451
4.861
2.266
-0.325
-2.901
-5.447
-7.954
-10.413
-12.819
-15.167
-17.45
-19.662
-21.796
-23.851
-25.821
-27.691
-29.429
-30.991
-32.332
-33.423
-34.245
-34.779
-35.008
-34.904
-34.442
-33.628
-32.491
-31.073
-29.435
-27.617
-25.632
-23.528
-21.414
-19.35
-17.351
-15.32
-13.017
-10.238
-6.898
-2.993
1.458
6.286
11.207
15.769
19.188
20.663
19.587
15.686
9.142
0.662
-8.777
-17.972
-25.185
-28.494
-26.011
-16.299
1.059
25.514
56.072
91.256
128.688
165.361
197.771
222.581
237.424
240.666
230.908
207.284
170.967
125.034
73.048
18.201
-39.1
-99.838
-161.712
-218.579
-260.812
-279.523
-272.225
-243.086
-201.241
-154.103
-104.517
-53.953
-3.195
42.467
74.446
88.361
84.804
70.065
52.562
37.222
24.825
13.5
2.235
-8.427
-17.17
-22.328
-23.707
-22.2
-18.544
-13.749
-8.894
-4.503
-0.939
1.587
3.293
4.445
5.189
5.784
6.535
7.581
9.014
10.86
13.015
15.386
17.921
20.541
23.178
25.82
28.469
31.153
33.923
36.81
39.834
43.019
46.385
49.939
53.685
57.615
61.718
65.986
70.413
74.989
79.706
84.55
89.507
94.56
99.695
104.895
110.141
115.413
120.69
125.953
131.183
136.363
141.475
146.502
151.426
156.231
160.902
165.423
169.776
173.945
177.911
181.66
185.177
188.448
191.46
194.204
196.672
198.857
200.756
202.365
203.682
204.708
205.443
205.889
206.048
205.924
205.523
204.851
203.916
202.727
201.291
199.62
197.724
195.614
193.301
190.798
188.117
185.271
182.273
179.137
175.877
172.508
169.045
165.503
161.897
158.241
154.55
150.839
147.12
143.408
139.715
136.053
132.435
128.872
125.376
121.958
118.629
115.398
112.276
109.272
106.395
103.654
101.058
98.613
96.329
94.211
92.267
90.502
88.923
87.533
86.336
85.337
84.536
83.936
83.537
83.338
83.339
83.535
83.924
84.502
85.263
86.2
87.306
88.572
89.99
91.549
93.237
95.042
96.95
98.947
101.018
103.147
105.315
107.505
109.699
111.875
114.015
116.097
118.099
120
121.778
123.411
124.877
126.154
127.22
128.056
128.64
128.954
128.979
128.699
128.096
127.156
125.866
124.214
122.188
119.778
116.979
113.782
110.184
106.182
101.776
96.966
91.755
86.149
80.154
73.779
67.033
59.931
52.485
44.712
36.63
28.259
19.62
10.737
1.635
-7.662
-17.126
-26.73
-36.446
-46.247
-56.103
-65.985
-75.865
-85.714
-95.502
-105.201
-114.782
-124.216
-133.478
-142.538
-151.373
-159.958
-168.27
-176.289
-183.993
-191.364
-198.386
-205.042
-211.317
-217.201
-222.681
-227.752
-232.406
-236.642
-240.459
-243.861
-246.852
-249.438
-251.629
-253.435
-254.868
-255.94
-256.668
-257.066
-257.153
-256.948
-256.475
-255.755
-254.814
-253.679
-252.375
-250.933
-249.38
-247.74
-246.041
-244.305
-242.556
-240.817
-239.112
-237.463
-235.891
-234.421
-233.073
-231.871
-230.832
-229.969
-229.292
-228.81
-228.526
-228.444
-228.567
-228.89
-229.416
-230.152
-231.104
-232.285
-233.702
-235.343
-237.197
-239.245
-241.452
-243.786
-246.212
-248.674
-251.135
-253.572
-255.97
-258.327
-260.639
-262.872
-264.986
-266.938
-268.677
-270.181
-271.424
-272.378
-273.063
-273.536
-273.876
-274.212
-274.655
-275.238
-275.993
-276.95
-278.039
-279.181
-280.251
-281.016
-281.287
-280.971
-279.989
-278.28
-276.003
-273.395
-270.738
-268.52
-267.119
-266.773
-267.663
-269.732
-272.422
-274.865
-276.139
-275.087
-270.685
-261.93
-247.804
-227.844
-202.344
-172.243
-138.641
-102.776
-66.086
-30.666
0.865
26.231
43.61
51.745
49.441
35.296
9.154
-27.031
-70.379
-118.629
-171.707
-230.982
-295.614
-359.975
-413.926
-447.832
-457.009
-443.672
-416.542
-384.327
-352.822
-324.547
-298.047
-272.388
-248.158
-226.665
-210.483
-200.895
-197.259
-198.094
-201.25
-204.825
-207.89
-209.828
-209.894
-207.727
-203.395
-197.295
-190.326
-183.477
-177.22
-171.765
-167.347
-163.976
-161.557
-159.994
-158.93
-157.922
-156.779
-155.411
-153.77
-151.919
-149.881
-147.636
-145.246
-142.792
-140.314
-137.858
-135.444
-133.069
-130.772
-128.582
-126.511
-124.575
-122.769
-121.074
-119.477
-117.959
-116.491
-115.056
-113.641
-112.23
-110.814
-109.379
-107.909
-106.387
-104.795
-103.111
-101.322
-99.411
-97.37
-95.192
-92.876
-90.424
-87.843
-85.136
-82.307
-79.362
-76.305
-73.142
-69.883
-66.536
-63.113
-59.626
-56.092
-52.526
-48.949
-45.379
-41.835
-38.335
-34.899
-31.545
-28.292
-25.16
-22.165
-19.326
-16.66
-14.184
-11.915
-9.866
-8.052
-6.484
-5.173
-4.127
-3.354
-2.859
-2.644
-2.711
-3.058
-3.685
-4.586
-5.755
-7.186
-8.866
-10.787
-12.934
-15.292
-17.845
-20.575
-23.464
-26.49
-29.634
-32.874
-36.187
-39.551
-42.944
-46.342
-49.724
-53.066
-56.347
-59.544
-62.636
-65.604
-68.428
-71.088
-73.569
-75.854
-77.928
-79.779
-81.394
-82.764
-83.88
-84.735
-85.325
-85.645
-85.693
-85.469
-84.975
-84.212
-83.186
-81.902
-80.366
-78.588
-76.577
-74.343
-71.897
-69.253
-66.422
-63.419
-60.257
-56.951
-53.515
-49.965
-46.316
-42.583
-38.781
-34.925
-31.03
-27.11
-23.179
-19.252
-15.341
-11.458
-7.617
-3.827
-0.1
3.556
7.13
10.615
14.003
17.289
20.467
23.532
26.482
29.312
32.023
34.613
37.081
39.429
41.658
43.771
45.771
47.66
49.44
51.117
52.694
54.177
55.574
56.888
58.123
59.292
60.407
61.478
62.522
63.54
64.53
65.509
66.496
67.479
68.451
69.41
70.344
71.281
72.264
73.284
74.317
75.46
76.828
78.366
80.088
82.023
83.954
86.493
90.238
94.352
98.586
101.398
100.942
99.271
97.754
98.427
104.086
112.263
120.861
128.447
132.646
135.153
137.682
140.61
144.979
150.172
155.397
160.791
166.242
171.79
177.579
183.488
189.419
195.382
201.364
207.336
213.282
219.185
225.029
230.805
236.511
242.115
247.589
252.914
258.068
263.028
267.776
272.288
276.54
280.513
284.186
287.54
290.554
293.21
295.491
297.386
298.887
299.987
300.686
300.98
300.869
300.355
299.441
298.127
296.412
294.294
291.771
288.85
285.539
281.851
277.796
273.383
268.623
263.527
258.11
252.391
246.387
240.112
233.59
226.852
219.947
212.937
205.882
198.828
191.812
184.872
178.048
171.388
164.941
158.724
152.734
146.95
141.34
135.882
130.581
125.408
120.276
115.141
110.02
105.044
100.469
96.505
93.226
90.643
88.756
87.416
86.371
85.149
83.001
79.261
73.483
65.516
55.56
44.235
32.416
21.338
12.631
7.792
8.364
15.57
29.88
51.197
78.089
107.772
137.546
165.295
190.584
214.359
235.365
249.737
251.17
233.11
194.194
137.496
68.896
-4.126
-75.893
-140.976
-192.468
-224.935
-235.891
-226.065
-200.41
-165.39
-126.037
-87.655
-55.865
-34.355
-24.809
-25.386
-30.066
-33.25
-32.086
-26.425
-18.974
-12.217
-6.824
-2.402
2.121
7.218
12.536
17.529
21.668
24.878
27.413
29.524
31.483
33.501
35.685
38.129
40.896
43.989
47.414
51.161
55.19
59.469
63.979
68.703
73.632
78.742
83.969
89.238
94.477
99.613
104.607
109.44
114.095
118.565
122.846
126.94
130.858
134.614
138.212
141.649
144.919
148.021
150.963
153.759
156.423
158.971
161.415
163.765
166.033
168.226
170.351
172.412
174.412
176.352
178.238
180.078
181.879
183.65
185.4
187.134
188.859
190.584
192.31
194.042
195.78
197.524
199.274
201.028
202.784
204.539
206.29
208.033
209.762
211.472
213.157
214.809
216.419
217.978
219.476
220.903
222.247
223.498
224.645
225.676
226.58
227.346
227.963
228.419
228.704
228.806
228.714
228.42
227.912
227.182
226.223
225.026
223.586
221.898
219.959
217.764
215.312
212.602
209.635
206.412
202.935
199.207
195.234
191.022
186.577
181.907
177.021
171.93
166.644
161.175
155.535
149.737
143.795
137.723
131.536
125.25
118.88
112.443
105.956
99.437
92.902
86.371
79.861
73.391
66.98
60.646
54.409
48.287
42.299
36.462
30.796
25.316
20.041
14.986
10.167
5.598
1.294
-2.733
-6.471
-9.908
-13.036
-15.846
-18.33
-20.483
-22.299
-23.774
-24.907
-25.696
-26.143
-26.249
-26.019
-25.458
-24.572
-23.372
-21.868
-20.072
-17.997
-15.661
-13.079
-10.272
-7.257
-4.058
-0.695
2.807
6.425
10.135
13.911
17.729
21.563
25.388
29.18
32.914
36.567
40.115
43.537
46.81
49.916
52.835
55.548
58.041
60.299
62.308
64.059
65.543
66.753
67.684
68.336
68.708
68.802
68.623
68.179
67.479
66.533
65.355
63.961
62.365
60.588
58.647
56.563
54.357
52.049
49.661
47.215
44.732
42.234
39.741
37.275
34.854
32.499
30.227
28.056
26.001
24.075
22.292
20.662
19.193
17.891
16.76
15.802
15.016
14.4
13.949
13.656
13.511
13.501
13.613
13.832
14.14
14.519
14.948
15.408
15.877
16.336
16.761
17.131
17.422
17.614
17.685
17.614
17.382
16.967
16.351
15.519
14.456
13.148
11.584
9.754
7.651
5.272
2.621
-0.3
-3.482
-6.918
-10.598
-14.509
-18.635
-22.964
-27.479
-32.171
-37.024
-42.018
-47.132
-52.341
-57.622
-62.957
-68.328
-73.714
-79.095
-84.456
-89.773
-95.022
-100.174
-105.186
-110.011
-114.61
-118.953
-123.014
-126.783
-130.258
-133.43
-136.319
-138.952
-141.305
-143.331
-145.011
-146.348
-147.409
-148.33
-149.164
-149.915
-150.731
-151.838
-153.284
-154.911
-156.415
-157.243
-157.63
-158.68
-160.162
-161.26
-160.365
-154.446
-144.564
-134.891
-129.186
-132.39
-144.422
-159.839
-174.57
-184.084
-186.103
-182.409
-173.725
-160.451
-143.323
-122.177
-97.12
-69.349
-41.141
-15.443
4.354
15.239
15.647
4.661
-19.15
-56.825
-107.389
-167.937
-234.538
-302.871
-372.025
-443.959
-517.26
-588.896
-652.355
-696.464
-715.415
-707.07
-673.481
-625.6
-574.466
-530.784
-502.726
-489.489
-486.162
-485.015
-479.146
-466.858
-449.526
-430.765
-413.315
-397.664
-383.362
-369.193
-354.704
-340.384
-326.763
-314.44
-303.827
-294.935
-287.673
-281.945
-277.515
-274.116
-271.487
-269.304
-267.267
-265.194
-262.973
-260.522
-257.821
-254.856
-251.595
-248.035
-244.145
-239.864
-235.164
-230.038
-224.497
-218.62
-212.514
-206.312
-200.18
-194.246
-188.591
-183.274
-178.323
-173.741
-169.541
-165.717
-162.266
-159.212
-156.571
-154.354
-152.569
-151.199
-150.209
-149.553
-149.16
-148.962
-148.915
-148.982
-149.139
-149.375
-149.677
-150.042
-150.473
-150.965
-151.51
-152.098
-152.713
-153.345
-153.991
-154.651
-155.328
-156.032
-156.767
-157.538
-158.348
-159.2
-160.094
-161.03
-162.002
-163.006
-164.041
-165.11
-166.213
-167.356
-168.542
-169.773
-171.056
-172.395
-173.793
-175.254
-176.779
-178.368
-180.024
-181.746
-183.535
-185.39
-187.309
-189.29
-191.331
-193.429
-195.578
-197.775
-200.013
-202.285
-204.581
-206.895
-209.214
-211.53
-213.831
-216.105
-218.341
-220.527
-222.65
-224.698
-226.656
-228.512
-230.252
-231.863
-233.328
-234.632
-235.758
-236.695
-237.431
-237.958
-238.26
-238.328
-238.163
-237.773
-237.169
-236.352
-235.305
-234.017
-232.495
-230.738
-228.714
-226.371
-223.661
-220.571
-217.14
-213.415
-209.38
-205.079
-200.7
-196.399
-192.228
-188.166
-184.025
-180.203
-177.798
-177.251
-177.928
-177.118
-170.885
-157.657
-139.376
-121.777
-111.467
-111.191
-118.735
-127.733
-131.995
-129.085
-120.366
-109.923
-100.996
-94.555
-90.138
-86.38
-82.562
-78.766
-75.107
-71.704
-68.501
-65.311
-62.078
-58.81
-55.488
-52.094
-48.622
-45.079
-41.485
-37.847
-34.148
-30.355
-26.444
-22.396
-18.194
-13.819
-9.249
-4.464
0.553
5.813
11.331
17.118
23.187
29.55
36.215
43.192
50.488
58.108
66.058
74.342
82.961
91.918
101.211
110.84
120.801
131.092
141.706
152.636
163.875
175.413
187.237
199.337
211.698
224.305
237.141
250.188
263.431
276.85
290.428
304.145
317.982
331.919
345.937
360.015
374.13
388.262
402.386
416.48
430.52
444.481
458.342
472.076
485.658
499.065
512.271
525.252
537.981
550.433
562.581
574.402
585.87
596.96
607.65
617.917
627.739
637.1
645.979
654.361
662.227
669.563
676.352
682.582
688.239
693.31
697.785
701.656
704.921
707.583
709.643
711.104
711.973
712.256
711.962
711.103
709.687
707.714
705.189
702.122
698.526
694.431
689.86
684.83
679.363
673.487
667.235
660.65
653.77
646.609
639.189
631.541
623.707
615.763
607.778
599.797
591.864
584.004
576.238
568.619
561.192
553.929
546.792
539.705
532.575
525.416
518.268
511.113
503.9
496.574
489.106
481.646
474.493
467.796
461.548
455.68
450.091
444.789
439.874
435.126
429.908
423.761
416.512
408.3
399.718
391.289
383.177
376.043
371.282
370.143
373.786
382.881
396.967
415.531
438.491
464.911
492.74
519.612
542.552
558.798
566.775
564.786
550.716
524.092
486.328
439.496
386.263
327.471
262.361
193.172
125.779
69.27
32.756
19.215
25.573
45.393
71.353
100.183
131.498
163.404
194.431
221.325
239.636
249.794
253.004
251.432
249.065
246.287
243.226
240.491
237.657
236.067
236.859
239.797
244.55
250.132
255.37
259.869
263.484
265.954
267.248
267.453
266.656
265.193
263.487
261.707
259.906
258.116
256.268
254.313
252.251
250.006
247.474
244.6
241.324
237.615
233.464
228.834
223.69
218.018
211.804
205.053
197.787
190.024
181.789
173.119
164.04
154.576
144.758
134.614
124.173
113.472
102.548
91.443
80.198
68.854
57.451
46.028
34.618
23.254
11.965
0.778
-10.278
-21.172
-31.875
-42.357
-52.592
-62.553
-72.216
-81.56
-90.565
-99.217
-107.503
-115.413
-122.938
-130.07
-136.806
-143.142
-149.077
-154.611
-159.748
-164.491
-168.847
-172.823
-176.431
-179.68
-182.584
-185.155
-187.408
-189.356
-191.014
-192.398
-193.524
-194.405
-195.058
-195.499
-195.742
-195.802
-195.695
-195.433
-195.031
-194.502
-193.856
-193.106
-192.261
-191.33
-190.321
-189.241
-188.097
-186.895
-185.638
-184.331
-182.976
-181.576
-180.131
-178.643
-177.111
-175.535
-173.913
-172.244
-170.526
-168.756
-166.934
-165.057
-163.123
-161.131
-159.079
-156.967
-154.793
-152.558
-150.26
-147.9
-145.479
-142.998
-140.457
-137.86
-135.207
-132.501
-129.745
-126.943
-124.097
-121.212
-118.292
-115.341
-112.364
-109.367
-106.355
-103.335
-100.312
-97.295
-94.29
-91.304
-88.347
-85.425
-82.547
-79.721
-76.956
-74.261
-71.643
-69.111
-66.675
-64.342
-62.122
-60.024
-58.056
-56.227
-54.547
-53.025
-51.67
-50.491
-49.499
-48.702
-48.112
-47.736
-47.587
-47.674
-48.007
-48.597
-49.452
-50.581
-51.994
-53.698
-55.7
-58.007
-60.626
-63.56
-66.815
-70.393
-74.299
-78.533
-83.095
-87.985
-93.199
-98.736
-104.588
-110.752
-117.218
-123.978
-131.023
-138.341
-145.921
-153.748
-161.805
-170.077
-178.544
-187.186
-195.981
-204.905
-213.934
-223.042
-232.206
-241.398
-250.594
-259.767
-268.891
-277.94
-286.889
-295.71
-304.38
-312.872
-321.162
-329.227
-337.046
-344.6
-351.872
-358.847
-365.511
-371.852
-377.859
-383.524
-388.839
-393.798
-398.397
-402.633
-406.509
-410.028
-413.197
-416.027
-418.531
-420.726
-422.631
-424.263
-425.641
-426.784
-427.713
-428.447
-429.003
-429.399
-429.656
-429.797
-429.847
-429.834
-429.783
-429.718
-429.661
-429.631
-429.649
-429.731
-429.888
-430.125
-430.451
-430.877
-431.426
-432.124
-432.992
-434.03
-435.237
-436.611
-438.146
-439.825
-441.618
-443.465
-445.306
-447.101
-448.823
-450.472
-452.039
-453.504
-454.838
-456.003
-456.984
-457.792
-458.426
-458.865
-459.082
-459.054
-458.821
-458.509
-458.26
-458.176
-458.332
-458.732
-459.391
-460.379
-461.665
-463.123
-464.523
-465.497
-465.732
-465.09
-463.489
-460.835
-457.26
-452.948
-448.14
-443.446
-439.406
-436.325
-434.395
-433.486
-432.865
-431.581
-428.747
-423.088
-413.343
-398.382
-377.032
-348.715
-313.964
-273.973
-229.927
-183.468
-136.703
-92.071
-52.658
-21.393
0.001
10.551
9.195
-4.474
-29.765
-65.116
-107.647
-153.859
-200.943
-246.178
-286.146
-317.862
-339.426
-349.787
-349.286
-339.094
-320.162
-294.073
-263.713
-232.15
-201.978
-175.425
-153.666
-137.302
-127.152
-123.322
-124.702
-129.72
-136.709
-143.986
-150.655
-156.215
-159.838
-161.086
-160.124
-157.356
-153.513
-149.472
-145.562
-141.844
-138.576
-135.855
-133.689
-132.091
-130.802
-129.452
-127.895
-126.076
-123.949
-121.56
-118.903
-115.931
-112.701
-109.299
-105.8
-102.291
-98.803
-95.32
-91.839
-88.358
-84.876
-81.403
-77.932
-74.441
-70.924
-67.385
-63.837
-60.303
-56.795
-53.319
-49.877
-46.466
-43.089
-39.752
-36.457
-33.206
-29.999
-26.838
-23.729
-20.683
-17.711
-14.816
-12.004
-9.276
-6.632
-4.077
-1.611
0.767
3.055
5.252
7.355
9.357
11.255
13.044
14.718
16.273
17.704
19.008
20.18
21.217
22.116
22.872
23.481
23.94
24.242
24.382
24.357
24.16
23.786
23.231
22.49
21.56
20.438
19.121
17.604
15.884
13.957
11.822
9.474
6.91
4.13
1.132
-2.083
-5.512
-9.153
-12.999
-17.046
-21.288
-25.716
-30.323
-35.099
-40.034
-45.118
-50.339
-55.684
-61.141
-66.694
-72.331
-78.036
-83.797
-89.596
-95.421
-101.257
-107.093
-112.916
-118.716
-124.478
-130.189
-135.838
-141.411
-146.896
-152.278
-157.539
-162.667
-167.653
-172.49
-177.176
-181.708
-186.085
-190.312
-194.394
-198.339
-202.152
-205.834
-209.384
-212.802
-216.097
-219.276
-222.358
-225.351
-228.253
-231.067
-233.794
-236.425
-238.945
-241.323
-243.51
-245.473
-247.201
-248.691
-249.958
-251.016
-251.875
-252.548
-253.054
-253.408
-253.639
-253.767
-253.797
-253.765
-253.721
-253.741
-253.94
-254.391
-255.125
-256.154
-257.451
-258.975
-260.688
-262.524
-264.402
-266.254
-268
-269.564
-270.889
-271.878
-272.405
-272.318
-271.41
-269.507
-266.496
-262.293
-256.865
-250.216
-242.346
-233.288
-223.101
-211.828
-199.534
-186.309
-172.232
-157.419
-142.036
-126.281
-110.411
-94.703
-79.375
-64.604
-50.524
-37.228
-24.817
-13.389
-3.023
6.207
14.257
21.114
26.776
31.255
34.621
36.984
38.518
39.447
39.949
40.158
40.177
40.082
39.963
39.924
40.065
40.459
41.161
42.207
43.625
45.448
47.664
50.227
53.042
55.975
58.925
61.828
64.638
67.32
69.837
72.137
74.179
75.951
77.444
78.653
79.574
80.196
80.526
80.593
80.442
80.132
79.703
79.179
78.573
77.898
77.167
76.398
75.606
74.793
73.959
73.108
72.232
71.335
70.42
69.488
68.547
67.611
66.702
65.859
65.141
64.607
64.314
64.306
64.597
65.207
66.151
67.442
69.115
71.186
73.65
76.51
79.76
83.373
87.334
91.579
95.997
100.496
104.962
109.302
113.485
117.465
121.207
124.757
128.122
131.306
134.445
137.68
141.204
145.398
150.551
156.803
164.376
173.445
184
196.063
209.38
223.236
237.05
250.575
263.723
276.741
290.136
304.14
319.344
337.09
358.621
385.003
416.945
454.183
496.152
541.979
589.459
636.004
678.979
717.604
753.681
787.221
816.002
833.409
829.708
801.166
749.495
680.655
603.892
524.944
447.73
378.236
323.637
290.336
282.094
297.595
329.933
372.31
418.204
460.783
496.484
522.066
536.53
542.793
542.957
539.502
533.754
524.495
512.129
497.687
482.381
468.662
457.845
450.125
445.416
442.895
441.438
440.108
438.272
435.5
431.678
426.92
421.297
414.965
408.257
401.551
395.117
389.108
383.534
378.306
373.395
368.796
364.487
360.425
356.549
352.81
349.18
345.649
342.218
338.885
335.643
332.488
329.424
326.462
323.623
320.932
318.393
316.005
313.759
311.649
309.678
307.849
306.164
304.629
303.246
302.02
300.956
300.058
299.325
298.749
298.321
298.027
297.858
297.805
297.857
298.004
298.237
298.542
298.906
299.316
299.754
300.201
300.637
301.039
301.386
301.655
301.824
301.872
301.776
301.515
301.068
300.416
299.538
298.413
297.024
295.353
293.381
291.093
288.474
285.509
282.188
278.502
274.443
270.005
