Name
Date of Birth,"Dec 28, 2003"
Recorded Date,2024-09-19 09:58:05 -0500
Classification,Poor Recording
Symptoms,
Software Version,1.90
Device,"Watch4,4"
Sample Rate,512.711 hertz


Lead,Lead I
Unit,µV

1190.006
1588.329
1836.692
1910.222
1842.257
1700.752
1550.005
1426.144
1334.671
1260.389
1187.173
1109.024
1027.169
947.735
874.994
808.014
745.964
688.237
634.924
587.724
545.908
506.545
466.427
422.319
373.174
319.932
263.964
206.85
150.029
94.899
43.03
-4.097
-45.786
-82.123
-113.525
-140.583
-163.817
-183.68
-200.837
-216.133
-230.164
-243.263
-255.656
-267.437
-278.809
-290.111
-301.529
-313.095
-324.786
-336.509
-348.19
-359.812
-371.317
-382.602
-393.543
-403.981
-413.791
-422.909
-431.242
-438.682
-445.089
-450.279
-454.16
-456.744
-458.068
-458.204
-457.223
-455.186
-452.178
-448.317
-443.699
-438.384
-432.423
-425.841
-418.697
-411.104
-403.193
-395.103
-386.939
-378.77
-370.679
-362.788
-355.223
-348.092
-341.491
-335.498
-330.229
-325.875
-322.606
-320.556
-319.813
-320.383
-322.249
-325.391
-329.776
-335.337
-341.962
-349.469
-357.657
-366.376
-375.486
-384.842
-394.268
-403.508
-412.344
-420.626
-428.249
-435.171
-441.391
-446.943
-451.916
-456.462
-460.765
-465.022
-469.471
-474.347
-479.784
-485.798
-492.306
-499.27
-506.819
-515.272
-524.926
-535.847
-548.16
-562.201
-578.615
-598.053
-620.567
-645.554
-672.202
-700.205
-729.641
-760.443
-791.972
-823.3
-854.188
-885.278
-917.723
-951.947
-987.339
-1023.22
-1059.535
-1097.016
-1136.399
-1177.87
-1221.105
-1266.49
-1315.752
-1371.069
-1434.341
-1506.338
-1587
-1676.271
-1774.278
-1880.72
-1994.026
-2111.323
-2229.083
-2344.352
-2454.621
-2557.124
-2648.7
-2725.699
-2785.073
-2825.511
-2846.807
-2848.751
-2831.493
-2795.885
-2743.526
-2677.342
-2599.928
-2512.003
-2414.081
-2307.556
-2195.415
-2081.718
-1968.277
-1852.864
-1729.765
-1593.17
-1441.337
-1277.608
-1108.964
-942.199
-780.376
-622.558
-467.014
-313.517
-164.091
-23.305
107.137
229.458
346.485
462.525
578.011
688.661
791.156
881.962
960.304
1029.306
1091.626
1149.97
1205.557
1256.897
1301.251
1335.614
1359.23
1374.307
1386.176
1401.19
1423.162
1453.423
1490.087
1529.411
1568.235
1603.155
1631.995
1654.142
1669.898
1682.027
1694.143
1710.259
1734.856
1769.944
1815.467
1868.548
1923.138
1974.669
2020.887
2061.831
2100.365
2138.118
2174.161
2206.929
2234.245
2254.573
2267.834
2274.851
2276.613
2273.651
2267.728
2259.585
2249.793
2242.3
2239.739
2245.194
2261.74
2286.557
2316.293
2347.407
2375.211
2398.438
2415.622
2424.113
2422.786
2410.243
2385.855
2350.854
2306.397
2254.18
2197.189
2138.548
2080.979
2026.5
1976.142
1930.259
1889.432
1853.988
1823.071
1795.207
1768.678
1742.223
1715.379
1687.926
1659.387
1629.185
1597.24
1564.029
1530.443
1497.087
1464.099
1431.488
1399.294
1367.78
1337.169
1307.37
1278.057
1248.977
1220.058
1191.362
1163.022
1135.064
1107.463
1080.276
1053.622
1027.649
1002.459
978.068
954.444
931.549
909.358
887.853
867.008
846.774
827.102
807.959
789.307
771.128
753.4
736.094
719.182
702.635
686.423
670.53
654.948
639.677
624.719
610.078
595.755
581.752
568.075
554.725
541.712
529.048
516.746
504.829
493.323
482.259
471.677
461.629
452.157
443.299
435.098
427.596
420.858
414.985
410.08
406.242
403.538
401.99
401.593
402.363
404.305
407.36
411.481
416.653
422.955
430.632
439.973
451.12
464.037
478.695
494.891
512.088
529.496
545.985
560.324
572.34
582.874
592.273
600.596
606.374
606.954
602.363
595.83
593.891
604.407
632.12
676.805
732.838
792.299
847.604
892.007
922.511
939.036
943.593
942.27
940.859
942.385
947.827
954.819
960.931
966.144
971.737
979.276
989.262
1000.876
1012.717
1023.873
1034.163
1043.389
1051.193
1057.295
1061.507
1063.961
1065.107
1065.17
1064.163
1062.1
1058.936
1054.643
1049.196
1042.501
1034.476
1025.146
1014.619
1003.113
990.919
978.341
965.788
953.388
940.931
928.274
915.114
901.588
888.605
876.13
863.77
850.801
835.171
818.015
802.559
791.958
791.532
801.061
816.037
832.575
842.675
842.275
831.145
807
772.852
732.379
686.652
638.682
588.19
532.888
475.489
421.392
376.874
348.936
338.263
339.727
348.453
359.068
369.101
379.481
389.913
400.171
409.739
417.054
421.674
423.938
424.507
424.718
425.613
427.503
430.38
434
438
442.127
446.086
449.436
451.89
453.406
454.08
454.16
453.931
453.525
453.01
452.476
451.942
451.415
450.931
450.46
449.953
449.418
448.87
448.287
447.644
446.967
446.26
445.376
444.218
442.737
440.714
438.671
437.136
435.369
433.154
429.143
421.735
412.776
403.495
395.709
391.906
389.916
387.92
384.685
378.146
369.845
361.338
352.995
345.777
339.169
332.498
325.912
319.336
312.833
306.566
300.463
294.471
288.634
282.976
277.506
272.243
267.205
262.405
257.866
253.606
249.623
245.913
242.478
239.315
236.423
233.798
231.434
229.323
227.457
225.825
224.417
223.218
222.213
221.385
220.715
220.18
219.756
219.421
219.149
218.917
218.698
218.455
218.159
217.79
217.327
216.746
216.016
215.086
213.92
212.5
210.79
208.721
206.222
203.223
199.681
195.614
191.03
185.858
180.107
173.944
167.434
160.544
153.321
145.575
137.589
130.431
123.931
117.031
107.88
93.338
73.662
51.954
31.557
16.487
5.72
-4.631
-16.506
-31.348
-45.923
-57.208
-67.105
-78.079
-95.1
-119.889
-147.835
-174.863
-196.714
-212.291
-225.345
-238.403
-253.068
-269.809
-287.034
-303.982
-320.675
-337.019
-353.209
-369.259
-384.932
-400.158
-414.968
-429.348
-443.284
-456.782
-469.854
-482.528
-494.849
-506.838
-518.49
-529.814
-540.828
-551.551
-562.003
-572.205
-582.173
-591.928
-601.494
-610.894
-620.15
-629.283
-638.313
-647.257
-656.133
-664.958
-673.744
-682.503
-691.244
-699.975
-708.698
-717.415
-726.124
-734.82
-743.497
-752.144
-760.749
-769.297
-777.772
-786.155
-794.429
-802.571
-810.562
-818.379
-826.001
-833.406
-840.573
-847.481
-854.11
-860.442
-866.459
-872.146
-877.49
-882.478
-887.102
-891.354
-895.229
-898.725
-901.841
-904.581
-906.948
-908.951
-910.601
-911.909
-912.893
-913.57
-913.961
-914.087
-913.973
-913.641
-913.118
-912.428
-911.597
-910.652
-909.619
-908.522
-907.386
-906.232
-905.081
-903.955
-902.869
-901.827
-900.83
-899.882
-898.983
-898.141
-897.364
-896.643
-895.972
-895.378
-894.88
-894.481
-894.171
-893.901
-893.61
-893.269
-892.833
-892.14
-891.032
-889.515
-887.578
-885.214
-882.604
-879.272
-874.888
-870.317
-865.761
-862.495
-861.936
-862.552
-863.992
-864.748
-861.682
-854.306
-840.71
-820.056
-795.345
-770.706
-752.012
-744.491
-749.007
-761.015
-773.46
-779.047
-772.197
-753.218
-725.757
-694.081
-664.529
-641.185
-624.352
-615.219
-611.991
-611.075
-612.964
-614.647
-612.715
-607.372
-594.561
-574.015
-549.641
-521.557
-493.905
-470.922
-452.817
-443.088
-441.745
-444.504
-448.937
-451.016
-449.249
-446.352
-443.655
-441.861
-440.629
-438.182
-434.16
-429.4
-424.553
-420.171
-416.431
-413.261
-410.916
-409.677
-409.464
-409.915
-410.682
-411.586
-412.605
-413.82
-415.204
-416.661
-418.155
-419.705
-421.347
-423.092
-424.905
-426.711
-428.453
-430.103
-431.648
-433.085
-434.406
-435.595
-436.636
-437.514
-438.216
-438.731
-439.051
-439.166
-439.068
-438.748
-438.201
-437.424
-436.416
-435.171
-433.682
-431.934
-429.915
-427.614
-425.021
-422.13
-418.932
-415.419
-411.583
-407.416
-402.911
-398.063
-392.865
-387.309
-381.387
-375.094
-368.425
-361.382
-353.967
-346.185
-338.044
-329.554
-320.729
-311.592
-302.168
-292.472
-282.522
-272.344
-261.958
-251.399
-240.706
-229.899
-219.002
-208.075
-197.177
-186.368
-175.715
-165.254
-155.007
-145.047
-135.46
-126.219
-117.273
-108.717
-100.591
-92.926
-85.982
-79.264
-72.273
-65.815
-60.153
-56.742
-57.296
-59.908
-63.27
-65.424
-63.73
-60.451
-57.517
-56.274
-58.927
-63.902
-69.611
-75.703
-81.212
-86.72
-92.945
-99.717
-107.142
-115.207
-123.852
-133.323
-143.774
-155.172
-167.473
-180.587
-194.388
-208.745
-223.467
-238.301
-253.02
-267.431
-281.386
-294.787
-307.474
-319.252
-329.876
-339.038
-346.525
-352.226
-356.064
-358.026
-358.163
-356.555
-353.391
-348.958
-343.492
-337.19
-330.212
-322.651
-314.657
-306.431
-298.189
-290.189
-282.641
-275.685
-269.453
-264.058
-259.547
-255.938
-253.163
-251.066
-249.546
-248.554
-248.064
-248.1
-248.659
-249.711
-251.236
-253.209
-255.612
-258.438
-261.673
-265.288
-269.29
-273.7
-278.571
-283.991
-290.016
-296.663
-303.938
-311.82
-320.283
-329.305
-338.841
-348.83
-359.217
-369.948
-380.972
-392.247
-403.718
-415.323
-426.992
-438.65
-450.226
-461.659
-472.886
-483.851
-494.501
-504.786
-514.666
-524.108
-533.08
-541.546
-549.474
-556.834
-563.597
-569.742
-575.248
-580.099
-584.282
-587.792
-590.625
-592.786
-594.283
-595.126
-595.332
-594.921
-593.916
-592.346
-590.241
-587.635
-584.564
-581.068
-577.185
-572.959
-568.433
-563.649
-558.653
-553.49
-548.204
-542.842
-537.448
-532.07
-526.75
-521.534
-516.463
-511.579
-506.925
-502.538
-498.456
-494.715
-491.348
-488.388
-485.867
-483.811
-482.242
-481.177
-480.629
-480.605
-481.112
-482.15
-483.711
-485.785
-488.361
-491.426
-494.974
-498.992
-503.463
-508.371
-513.694
-519.416
-525.523
-531.994
-538.807
-545.931
-553.327
-560.953
-568.77
-576.727
-584.769
-592.84
-600.877
-608.815
-616.588
-624.129
-631.367
-638.226
-644.635
-650.508
-655.751
-660.311
-664.172
-667.367
-669.99
-672.107
-673.727
-674.897
-675.696
-676.142
-676.24
-675.832
-674.553
-672.246
-668.974
-664.854
-660.128
-655.014
-649.578
-644.298
-640.115
-637.54
-636.718
-637.404
-638.72
-639.982
-640.89
-640.296
-636.294
-627.298
-611.851
-589.436
-560.934
-526.916
-487.627
-444.648
-400.531
-358.268
-321.609
-293.104
-273.661
-264.584
-267.086
-280.918
-304.976
-336.837
-372.428
-408.458
-442.507
-471.594
-493.256
-506.12
-509.246
-503.094
-489.834
-471.436
-449.93
-428.162
-407.667
-389.346
-375.056
-365.258
-360.803
-362.728
-368.217
-374.63
-379.143
-378.651
-374.937
-369.836
-364.736
-361.821
-359.862
-357.774
-355.477
-352.121
-348.202
-344.218
-339.87
-335.177
-330.029
-324.21
-317.79
-310.843
-303.372
-295.452
-287.164
-278.54
-269.595
-260.331
-250.738
-240.824
-230.628
-220.184
-209.511
-198.626
-187.543
-176.27
-164.821
-153.202
-141.416
-129.46
-117.336
-105.052
-92.624
-80.072
-67.414
-54.668
-41.849
-28.974
-16.062
-3.129
9.81
22.744
35.659
48.544
61.386
74.173
86.893
99.537
112.093
124.55
136.897
149.123
161.217
173.167
184.962
196.589
208.038
219.296
230.352
241.194
251.809
262.186
272.313
282.182
291.782
301.104
310.142
318.887
327.334
335.478
343.314
350.837
358.044
364.932
371.497
377.738
383.654
389.246
394.514
399.46
404.089
408.404
412.413
416.123
419.541
422.678
425.546
428.155
430.519
432.652
434.57
436.287
437.82
439.185
440.399
441.478
442.437
443.293
444.062
444.757
445.394
445.986
446.545
447.083
447.611
448.138
448.673
449.222
449.79
450.381
450.997
451.639
452.305
452.99
453.69
454.397
455.102
455.793
456.456
457.076
457.636
458.118
458.502
458.766
458.889
458.847
458.617
458.175
457.498
456.561
455.342
453.817
451.965
449.763
447.193
444.235
440.873
437.09
432.875
428.216
423.104
417.533
411.501
405.006
398.052
390.643
382.79
374.504
365.801
356.702
347.228
337.406
327.266
316.84
306.164
295.277
284.22
273.037
261.773
250.477
239.197
227.985
216.892
205.973
195.279
184.864
174.781
165.081
155.817
147.038
138.791
131.123
124.076
117.693
112.01
107.064
102.884
99.498
96.929
95.194
94.309
94.28
95.113
96.807
99.354
102.745
106.964
111.989
117.796
124.354
131.627
139.577
148.158
157.32
167.011
177.175
187.753
198.683
209.904
221.35
232.957
244.658
256.387
268.079
279.669
291.092
302.283
313.182
323.728
333.866
343.542
352.707
361.316
369.328
376.706
383.418
389.438
394.743
399.317
403.148
406.23
408.562
410.149
411.003
411.143
410.596
409.393
407.57
405.167
402.231
398.807
394.944
390.688
386.084
381.177
376.017
370.656
365.15
359.56
353.947
348.376
342.916
337.635
332.598
327.864
323.471
319.462
315.879
312.773
310.206
308.228
306.875
306.173
306.138
306.768
308.049
309.936
312.338
315.169
318.338
321.772
325.451
329.343
333.409
337.588
341.778
345.903
349.947
353.919
357.849
361.798
365.793
369.92
374.421
379.441
385.041
391.137
397.36
403.379
409.076
414.428
419.37
423.998
428.57
433.605
440.059
448.709
459.227
470.364
481.147
490.815
500.045
510.62
521.824
530.855
532.976
521.919
494.817
453.391
402.306
349.499
302.413
264.663
237.951
219.974
205.692
191.729
174.938
154.761
133.651
113.072
94.295
77.884
62.999
49.527
37.805
27.87
19.849
13.55
8.509
4.443
1.15
-1.561
-3.841
-5.769
-7.355
-8.596
-9.497
-10.132
-10.647
-11.141
-11.608
-11.971
-12.105
-11.847
-11.1
-9.794
-7.853
-5.25
-1.99
1.896
6.334
11.25
16.61
22.405
28.652
35.364
42.506
50.016
57.808
65.771
73.814
81.853
89.8
97.586
105.165
112.501
119.584
126.413
132.973
139.239
145.18
150.765
155.97
160.784
165.197
169.211
172.829
176.059
178.917
181.418
183.574
185.395
186.889
188.06
188.918
189.475
189.745
189.746
189.496
189.016
188.331
187.465
186.442
185.285
184.016
182.657
181.228
179.751
178.246
176.734
175.234
173.767
172.351
171.005
169.748
168.598
167.57
166.68
165.942
165.369
164.974
164.768
164.761
164.965
165.388
166.039
166.929
168.064
169.452
171.101
173.015
175.199
177.656
180.391
183.404
186.698
190.275
194.136
198.281
202.711
207.426
212.426
217.707
223.269
229.108
235.22
241.599
248.241
255.139
262.284
269.669
277.283
285.117
293.157
301.392
309.807
318.387
327.117
335.977
344.952
354.022
363.166
372.366
381.599
390.845
400.081
409.286
418.436
427.508
436.479
445.326
454.026
462.556
470.894
479.017
486.905
494.537
501.893
508.956
515.708
522.133
528.216
533.946
539.311
544.301
548.91
553.13
556.958
560.393
563.433
566.08
568.337
570.209
571.702
572.826
573.589
574.003
574.081
573.838
573.287
572.447
571.335
569.97
568.37
566.556
564.549
562.369
560.038
557.577
555.006
552.346
549.616
546.837
544.027
541.202
538.38
535.575
532.801
530.071
527.397
524.787
522.25
519.792
517.419
515.134
512.94
510.835
508.82
506.892
505.045
503.274
501.572
499.928
498.333
496.775
495.24
493.715
492.183
490.629
489.036
487.387
485.664
483.849
481.925
479.874
477.679
475.324
472.793
470.071
467.144
464
460.627
457.017
453.159
449.048
444.679
440.047
435.151
429.992
424.572
418.895
412.967
406.798
400.399
393.782
386.963
379.959
372.789
365.473
358.034
350.497
342.888
335.233
327.561
319.9
312.281
304.735
297.29
289.974
282.815
275.84
269.079
262.558
256.303
250.34
244.689
239.37
234.402
229.802
225.58
221.743
218.293
215.231
212.558
210.277
208.386
206.875
205.728
204.922
204.431
204.232
204.295
204.586
205.073
205.721
206.492
207.357
208.288
209.247
210.202
211.113
211.913
212.555
213.038
213.379
213.596
213.694
213.608
213.254
212.615
211.7
210.427
208.647
206.289
203.308
199.802
196.218
192.273
187.516
182.509
177.232
173.025
171.434
170.262
167.636
161.005
147.528
129.688
110.136
90.757
74.054
59.214
45.193
31.601
18.298
6.523
-2.268
-5.596
-3.956
-1.216
-1.464
-10.315
-28.655
-51.644
-74.918
-93.96
-107.614
-119.146
-130.563
-142.946
-156.51
-169.912
-182.802
-195.551
-208.269
-221.177
-234.268
-247.366
-260.469
-273.624
-286.805
-299.961
-313.092
-326.235
-339.471
-352.882
-366.491
-380.314
-394.378
-408.717
-423.386
-438.396
-453.718
-469.354
-485.306
-501.542
-518.077
-534.878
-551.808
-568.926
-586.403
-604.306
-622.79
-641.917
-661.412
-681.058
-700.908
-720.681
-739.772
-758.359
-776.254
-792.496
-807.584
-820.54
-829.704
-837.452
-845.049
-853.824
-867.527
-884.999
-904.996
-928.76
-953.732
-977.928
-999.586
-1014.08
-1020.945
-1023.577
-1025.119
-1029.594
-1037.919
-1047.232
-1055.59
-1061.69
-1065.449
-1068.183
-1070.164
-1071.021
-1070.441
-1068.105
-1064.162
-1058.999
-1052.786
-1045.589
-1037.504
-1028.627
-1019.099
-1009.035
-998.475
-987.427
-975.901
-963.976
-951.786
-939.513
-927.346
-915.39
-903.652
-892.07
-880.592
-869.207
-857.923
-846.744
-835.643
-824.596
-813.611
-802.734
-792.014
-781.467
-771.065
-760.746
-750.443
-740.128
-729.81
-719.522
-709.281
-699.088
-688.936
-678.827
-668.77
-658.764
-648.78
-638.768
-628.677
-618.47
-608.124
-597.627
-586.962
-576.106
-565.033
-553.718
-542.142
-530.29
-518.146
-505.696
-492.925
-479.828
-466.412
-452.691
-438.686
-424.415
-409.902
-395.173
-380.263
-365.208
-350.047
-334.819
-319.569
-304.344
-289.195
-274.178
-259.349
-244.766
-230.487
-216.572
-203.083
-190.078
-177.617
-165.758
-154.556
-144.066
-134.338
-125.422
-117.361
-110.198
-103.97
-98.708
-94.443
-91.196
-88.986
-87.824
-87.717
-88.665
-90.663
-93.7
-97.757
-102.81
-108.832
-115.787
-123.636
-132.332
-141.826
-152.06
-162.975
-174.506
-186.585
-199.14
-212.094
-225.371
-238.892
-252.574
-266.336
-280.094
-293.766
-307.268
-320.519
-333.437
-345.943
-357.961
-369.417
-380.238
-390.357
-399.71
-408.238
-415.884
-422.599
-428.337
-433.058
-436.729
-439.32
-440.811
-441.186
-440.434
-438.553
-435.546
-431.422
-426.196
-419.889
-412.527
-404.144
-394.777
-384.469
-373.267
-361.223
-348.394
-334.84
-320.623
-305.809
-290.466
-274.665
-258.476
-241.974
-225.231
-208.323
-191.322
-174.302
-157.337
-140.497
-123.853
-107.474
-91.423
-75.761
-60.548
-45.838
-31.684
-18.132
-5.224
7.004
18.52
29.294
39.302
48.521
56.936
64.537
71.317
77.276
82.416
86.743
90.272
93.021
95.013
96.272
96.821
96.686
95.889
94.464
92.447
89.885
86.827
83.319
79.406
75.136
70.56
65.728
60.685
55.462
50.083
44.578
38.98
33.337
27.705
22.12
16.596
11.126
5.695
0.313
-4.97
-10.11
-15.084
-19.893
-24.57
-29.069
-33.248
-37.055
-40.581
-44.06
-47.758
-51.711
-55.642
-59.259
-62.503
-65.268
-67.27
-67.858
-66.194
-61.961
-55.584
-47.878
-39.427
-30.645
-22.012
-14.405
-9.004
-6.415
-6.289
-7.576
-9.356
-11.057
-12.208
-12.202
-10.174
-5.6
1.284
9.701
19.003
28.834
38.998
49.38
59.684
69.695
79.583
89.655
100.077
110.888
121.985
133.217
144.579
156.074
167.617
179.101
190.411
201.478
212.315
222.91
233.193
243.069
252.406
261.157
269.388
277.144
284.455
291.341
297.786
303.8
309.433
314.692
319.558
324.013
328.023
331.588
334.751
337.548
340.028
342.207
344.054
345.557
346.714
347.521
347.987
348.109
347.867
347.268
346.346
345.126
343.639
341.905
339.924
337.704
335.256
332.594
329.736
326.696
323.484
320.115
316.601
312.959
309.206
305.351
301.394
297.339
293.187
288.942
284.609
280.188
275.678
271.081
266.4
261.637
256.795
251.877
246.881
241.812
236.67
231.461
226.188
220.856
215.47
210.039
204.572
199.078
193.569
188.058
182.556
177.08
171.643
166.263
160.956
155.74
150.631
145.648
140.813
136.145
131.665
127.395
123.359
119.579
116.079
112.886
110.02
107.505
105.364
103.618
102.288
101.395
100.954
100.984
101.497
102.507
104.023
106.054
108.603
111.672
115.261
119.367
123.986
129.11
134.731
140.835
147.409
154.437
161.902
169.784
178.058
186.697
195.672
204.95
214.496
224.27
234.224
244.312
254.486
264.693
274.882
284.999
294.987
304.792
314.365
323.652
332.597
341.145
349.238
356.821
363.841
370.244
375.975
380.98
385.204
388.599
391.124
392.733
393.377
393.005
391.558
388.995
385.294
380.441
374.43
367.274
358.993
349.636
339.283
328.002
315.852
302.89
289.152
274.694
259.595
243.922
227.745
211.108
194.022
176.489
158.51
140.039
121
101.287
80.753
59.302
36.905
13.549
-10.726
-35.883
-61.889
-88.655
-116.044
-143.881
-171.945
-199.979
-227.721
-254.814
-280.829
-305.336
-327.871
-348.057
-365.629
-380.348
-392.035
-400.553
-405.791
-407.724
-406.424
-401.992
-394.571
-384.373
-371.638
-356.722
-340.083
-322.161
-303.401
-284.184
-264.801
-245.534
-226.634
-208.305
-190.719
-173.999
-158.206
-143.405
-129.661
-116.982
-105.354
-94.693
-84.845
-75.687
-67.121
-59.072
-51.518
-44.446
-37.856
-31.782
-26.289
-21.443
-17.327
-14.011
-11.54
-9.978
-9.382
-9.815
-11.368
-14.101
-18.057
-23.276
-29.76
-37.487
-46.425
-56.513
-67.663
-79.774
-92.715
-106.328
-120.471
-135.015
-149.859
-164.929
-180.135
-195.398
-210.643
-225.791
-240.799
-255.636
-270.248
-284.584
-298.623
-312.376
-325.912
-339.383
-352.908
-366.565
-380.395
-394.367
-408.436
-422.537
-436.556
-450.356
-463.752
-476.555
-488.619
-499.825
-510.019
-519.008
-526.542
-532.246
-535.767
-536.807
-535.078
-530.394
-522.674
-511.886
-498.053
-481.347
-462.027
-440.412
-416.985
-392.23
-366.555
-340.372
-314.101
-288.037
-262.478
-237.565
-212.906
-187.923
-162.088
-135.65
-109.701
-85.417
-63.65
-43.371
-23.22
-4.295
10.742
16.988
8.848
-14.753
-52.465
-102.014
-157.4
-212.593
-260.84
-292.8
-303.447
-293.597
-268.284
-237.195
-209.717
-189.77
-178.071
-172.944
-170.141
-168.03
-166.079
-163.389
-161.355
-160.222
-159.475
-159.361
-158.963
-157.652
-155.594
-152.822
-149.726
-146.909
-144.617
-142.886
-141.688
-140.806
-139.959
-138.969
-137.687
-135.954
-133.688
-130.866
-127.47
-123.563
-119.251
-114.575
-109.553
-104.167
-98.346
-92.08
-85.402
-78.362
-71.043
-63.509
-55.798
-47.964
-40.072
-32.171
-24.305
-16.499
-8.752
-1.087
6.452
13.816
20.944
27.789
34.324
40.515
46.323
51.706
56.611
61.003
64.862
68.179
70.947
73.176
74.888
76.114
76.899
77.274
77.251
76.82
75.945
74.592
72.726
70.339
67.454
64.091
60.265
55.981
51.233
45.987
40.184
33.749
26.587
18.651
9.95
0.557
-9.377
-19.669
-30.095
-40.467
-50.644
-60.49
-69.881
-78.689
-86.781
-93.993
-100.135
-104.986
-108.283
-109.825
-109.474
-107.184
-103.011
-97.075
-89.564
-80.64
-70.43
-59.045
-46.572
-33.093
-18.691
-3.466
12.467
28.945
45.753
62.707
79.655
96.511
113.259
129.932
146.615
163.37
180.24
197.241
214.352
231.537
248.745
265.914
282.978
299.9
316.673
333.286
349.719
365.926
381.828
397.326
412.299
426.632
440.221
452.977
464.833
475.74
485.665
494.591
502.515
509.431
515.326
520.187
524.005
526.781
528.526
529.263
529.02
527.834
525.748
522.805
519.051
514.532
509.291
503.373
496.821
489.682
482.007
473.85
465.271
456.332
447.094
437.622
427.984
418.243
408.464
398.708
389.035
379.504
370.171
361.091
352.314
343.892
335.871
328.294
321.205
314.641
308.637
303.225
298.433
294.285
290.803
288.003
285.899
284.501
283.815
283.846
284.594
286.056
288.224
291.088
294.634
298.844
303.695
309.163
315.216
321.825
328.955
336.569
344.631
353.1
361.935
371.093
380.533
390.207
400.07
410.072
420.167
430.305
440.436
450.512
460.482
470.297
479.911
489.276
498.344
507.071
515.409
523.315
530.745
537.659
544.018
549.785
554.927
559.414
563.22
566.322
568.701
570.343
571.233
571.359
570.717
569.3
567.107
564.14
560.403
555.905
550.663
544.694
538.017
530.659
522.647
514.014
504.794
495.021
484.731
473.96
462.752
451.152
439.208
426.967
414.476
401.784
388.945
376.015
363.046
350.088
337.183
324.376
311.709
299.229
286.983
275.012
263.347
252.025
241.095
230.609
220.631
211.206
202.342
194.05
186.343
179.226
172.701
166.758
161.356
156.473
152.113
148.287
145.026
142.335
140.176
138.489
137.176
136.138
135.337
134.724
134.245
133.944
133.879
134.082
134.742
136.023
137.916
140.518
143.763
147.115
150.232
153.121
155.511
157.858
160.872
163.878
167.165
170.837
173.767
176.84
180.799
186.868
198.883
219.027
246.278
276.192
299.99
309.2
300.252
274.524
237.436
194.704
150.313
107.694
70.939
46.358
39.438
51.53
79.341
114.843
149.086
176.781
195.835
207.299
214.901
220.494
225.241
230.105
233.848
236.523
238.66
240.089
241.794
244.22
247.066
250.262
253.314
255.65
257.199
258.04
258.34
258.361
258.221
257.982
257.717
257.498
257.386
257.382
257.471
257.651
257.925
258.32
258.877
259.599
260.451
261.376
262.274
263.063
263.702
264.158
264.41
264.456
264.285
263.901
263.325
262.559
261.588
260.394
258.945
257.219
255.204
252.892
250.282
247.377
244.173
240.665
236.85
232.719
228.261
223.463
218.308
212.782
206.877
200.59
193.923
186.88
179.468
171.695
163.575
155.123
146.352
137.281
127.926
118.309
108.451
98.378
88.115
77.691
67.136
56.483
45.764
35.014
24.265
13.553
2.909
-7.632
-18.038
-28.279
-38.326
-48.148
-57.719
-67.013
-76.006
-84.675
-93.002
-100.97
-108.565
-115.777
-122.598
-129.025
-135.057
-140.697
-145.949
-150.821
-155.325
-159.474
-163.283
-166.773
-169.963
-172.877
-175.541
-177.982
-180.23
-182.314
-184.266
-186.117
-187.899
-189.645
-191.385
-193.153
-194.979
-196.892
-198.923
-201.1
-203.45
-205.998
-208.769
-211.784
-215.064
-218.628
-222.49
-226.665
-231.164
-235.995
-241.165
-246.678
-252.535
-258.734
-265.271
-272.142
-279.335
-286.842
-294.647
-302.736
-311.09
-319.691
-328.517
-337.546
-346.754
-356.116
-365.605
-375.196
-384.86
-394.569
-404.294
-414.005
-423.673
-433.268
-442.759
-452.115
-461.306
-470.302
-479.073
-487.588
-495.821
-503.744
-511.329
-518.553
-525.391
-531.822
-537.826
-543.384
-548.48
-553.102
-557.237
-560.879
-564.02
-566.658
-568.791
-570.422
-571.555
-572.195
-572.351
-572.033
-571.252
-570.024
-568.364
-566.29
-563.824
-560.987
-557.806
-554.308
-550.522
-546.479
-542.208
-537.744
-533.117
-528.361
-523.507
-518.587
-513.63
-508.667
-503.726
-498.834
-494.017
-489.296
-484.686
-480.201
-475.851
-471.645
-467.583
-463.664
-459.886
-456.243
-452.729
-449.34
-446.064
-442.887
-439.791
-436.755
-433.75
-430.745
-427.702
-424.578
-421.326
-417.899
-414.25
-410.334
-406.105
-401.515
-396.513
-391.044
-385.061
-378.531
-371.422
-363.715
-355.399
-346.47
-336.941
-326.841
-316.199
-305.047
-293.413
-281.318
-268.778
-255.809
-242.433
-228.688
-214.582
-200.089
-185.16
-169.723
-153.707
-137.05
-119.676
-101.489
-82.411
-62.386
-41.391
-19.454
3.381
27.06
51.537
76.784
102.706
129.12
155.77
182.334
208.494
233.938
258.319
281.254
302.373
321.366
338.006
352.148
363.665
372.427
378.284
381.055
380.651
377.09
370.491
361.077
349.095
334.845
318.712
301.148
282.633
263.559
244.228
224.897
205.835
187.348
169.787
153.519
138.868
126.148
115.558
107.114
100.709
96.018
92.615
90.14
88.221
86.522
85.081
84.212
84.355
86.19
90.278
96.738
105.437
116.101
127.679
138.457
146.522
149.704
146.108
135.162
117.323
92.742
61.888
24.4
-21.022
-73.214
-128.01
-178.232
-215.87
-236.307
-241.117
-237.486
-232.796
-231.626
-234.236
-236.948
-237.35
-235.497
-232.213
-228.967
-226.069
-222.337
-217.111
-210.337
-201.958
-192.069
-180.747
-167.939
-153.975
-139.548
-125.115
-110.95
-97.212
-83.877
-70.96
-58.525
-46.517
-34.806
-23.246
-11.644
0.087
11.936
23.883
35.867
47.867
59.906
71.986
84.116
96.285
108.44
120.55
132.598
144.499
156.167
167.492
178.298
188.484
198.032
206.887
215
222.441
229.246
235.301
240.625
245.253
248.887
251.973
255.09
257.442
258.782
257.896
252.541
244.1
234.629
226.272
223.058
224.417
226.55
226.896
221.403
209.104
193.883
178.043
163.902
153.105
143.403
133.394
122.672
110.359
97.192
83.822
70.063
56.062
41.804
27.163
12.261
-2.793
-17.998
-33.323
-48.718
-64.173
-79.682
-95.229
-110.817
-126.448
-142.103
-157.771
-173.446
-189.121
-204.789
-220.445
-236.082
-251.694
-267.277
-282.831
-298.353
-313.84
-329.293
-344.708
-360.085
-375.42
-390.71
-405.95
-421.138
-436.269
-451.336
-466.332
-481.254
-496.101
-510.869
-525.556
-540.15
-554.632
-569.003
-583.259
-597.375
-611.324
-625.086
-638.635
-651.976
-665.132
-678.077
-690.775
-703.299
-715.736
-728.025
-740.17
-752.184
-763.867
-775.758
-788.382
-800.991
-813.362
-824.126
-831.641
-837.74
-843.644
-851.171
-862.814
-876.39
-890.037
-902.48
-911.608
-918.932
-925.992
-933.146
-941.342
-950.045
-958.585
-967.146
-975.672
-984.231
-992.966
-1001.748
-1010.465
-1019.134
-1027.674
-1035.874
-1043.693
-1051.227
-1058.476
-1065.621
-1072.415
-1077.986
-1082.614
-1087.188
-1093.356
-1104.024
-1119.231
-1136.849
-1153.373
-1163.207
-1164.407
-1157.966
-1146.826
-1137.008
-1132.269
-1134.923
-1145.937
-1162.994
-1183.407
-1203.137
-1217.603
-1223.926
-1220.885
-1210.064
-1194.759
-1179.22
-1167.329
-1161.435
-1163.331
-1172.565
-1187.252
-1204.375
-1219.193
-1227.667
-1226.721
-1216.286
-1199.007
-1179.428
-1163.373
-1153.264
-1150.104
-1152.902
-1159.003
-1168.709
-1181.677
-1196.791
-1211.378
-1220.23
-1218.894
-1204.667
-1180.106
-1150.507
-1123.189
-1107.75
-1108.635
-1126.804
-1157.972
-1190.166
-1212.663
-1218.496
-1206.513
-1184.367
-1162.159
-1146.786
-1140.972
-1141.554
-1142.086
-1138.965
-1131.79
-1123.592
-1119.68
-1122.119
-1129.293
-1136.303
-1136.442
-1125.962
-1104.393
-1074.521
-1041.537
-1009.616
-982.081
-960.89
-945.674
-935.623
-928.853
-922.216
-913.02
-898.355
-875.404
-843.348
-803.218
-757.387
-710.718
-668.237
-632.387
-604.219
-580.892
-556.785
-528.142
-492.368
-450.281
-405.303
-358.67
-309.36
-253.637
-187.66
-112.69
-35.308
34.398
87.619
124.138
152.203
185.068
235.988
308.909
398.973
496.31
588.531
669.186
737.494
795.077
846.29
893.332
935.448
971.701
1000.675
1021.849
1036.912
1048.133
1057.009
1064.568
1071.754
1079.188
1088.169
1100.75
1117.663
1138.959
1165.241
1196.76
1233.602
1276.239
1323.785
1373.807
1424.605
1474.595
1521.646
1564.492
1601.938
1632.249
1655.127
1671.746
1683.146
1690.883
1697.003
1702.629
1708.906
1717.419
1728.787
1742.856
1759.335
1777.299
1795.568
1813.601
1830.917
1846.86
1861.169
1873.754
1884.615
1894.072
1902.495
1909.899
1916.131
1921.061
1924.492
1926.319
1926.529
1924.964
1921.39
1915.685
1907.794
1897.686
1885.371
1870.738
1853.517
1833.586
1810.983
1785.745
1757.898
1727.551
1694.853
1659.868
1622.878
1583.63
1541.021
1495.35
1447.834
1400.355
1356.541
1316.583
1277.168
1235.004
1185.24
1127.296
1065.916
1004.877
948.157
896.722
847.193
797.456
746.067
692.661
638.801
584.923
531.621
479.651
427.997
376.615
323.95
267.296
209.032
151.642
98.934
56.916
23.054
-7.752
-40.009
-80.471
-127.624
-175.49
-220.354
-257.566
-287.105
-312.865
-336.602
-359.739
-382.583
-403.671
-422.517
-439.234
-453.772
-466.346
-477.003
-485.566
-491.977
-496.267
-498.459
-498.591
-496.696
-492.801
-487.043
-479.596
-470.471
-459.718
-447.413
-433.424
-418.348
-402.773
-386.025
-367.944
-347.235
-322.338
-295.137
-266.913
-239.536
-215.547
-192.84
-169.641
-144.756
-116.167
-85.444
-54.176
-22.772
7.774
37.928
68.312
98.728
129.198
159.613
189.769
219.699
249.416
278.84
307.913
336.593
364.829
392.568
419.764
446.361
472.305
497.564
522.111
545.911
568.935
591.156
612.549
633.096
652.779
671.583
689.493
706.497
722.589
737.762
752.013
765.341
777.748
789.238
799.818
809.495
818.28
826.185
833.225
839.413
844.768
849.307
853.05
856.015
858.224
859.7
860.463
860.538
859.946
858.712
856.858
854.408
851.384
847.81
843.708
839.099
834.005
828.447
822.445
816.019
809.186
801.965
794.373
786.425
778.136
769.522
760.596
751.371
741.86
732.073
722.025
711.725
701.185
690.417
679.43
668.236
656.846
645.272
633.526
621.619
609.564
597.375
585.063
572.644
560.132
547.54
534.885
522.181
509.445
496.694
483.945
471.216
458.525
445.891
433.333
420.87
408.52
396.303
384.236
372.337
360.622
349.109
337.811
326.743
315.917
305.347
295.043
285.014
275.269
265.81
256.642
247.766
239.18
230.884
222.871
215.136
207.671
200.467
193.513
186.798
180.308
174.025
167.933
162.012
156.243
150.606
145.078
139.639
134.265
128.938
123.636
118.339
113.028
107.685
102.293
96.839
91.304
85.676
79.937
74.073
68.073
61.923
55.608
49.122
42.46
35.627
28.633
21.488
14.201
6.785
-0.748
-8.381
-16.091
-23.877
-31.737
-39.653
-47.604
-55.539
-63.385
-71.111
-78.712
-86.159
-93.452
-100.586
-107.541
-114.362
-121.127
-127.843
-134.484
-141.083
-147.65
-154.105
-160.47
-166.836
-173.109
-179.837
-187.497
-195.296
-202.921
-208.994
-211.858
-213.121
-213.844
-215.81
-221.575
-229.393
-237.875
-245.798
-251.042
-254.999
-258.635
-261.836
-265.073
-266.747
-265.349
-260.885
-253.21
-242.89
-231.538
-220.261
-210.117
-202.996
-200.427
-203.355
-212.64
-228.228
-248.337
-270.628
-293.777
-316.189
-337.176
-357.902
-376.228
-388.374
-391.654
-382.252
-361.014
-333.932
-306.2
-283.026
-266.627
-254.808
-245.775
-238.118
-231.036
-224.881
-219.135
-212.879
-205.397
-196.119
-185.052
-172.477
-158.637
-143.84
-128.45
-112.71
-96.789
-80.761
-64.579
-48.226
-31.704
-14.978
1.978
19.16
36.561
54.157
71.939
89.99
108.377
127.134
146.278
165.739
185.41
205.195
224.975
244.592
263.852
282.482
300.177
316.7
331.818
345.307
356.931
366.357
373.295
377.537
378.918
377.376
372.91
365.523
355.267
342.301
326.839
309.195
289.752
268.809
246.644
223.543
199.793
175.754
151.765
128.08
104.913
82.432
60.77
40.07
20.446
1.914
-15.548
-32.02
-47.63
-62.436
-76.467
-89.758
-102.335
-114.249
-125.546
-136.218
-146.231
-155.558
-164.173
-172.063
-179.219
-185.587
-191.103
-195.698
-199.29
-201.842
-203.339
-203.775
-203.16
-201.517
-198.876
-195.299
-190.865
-185.647
-179.718
-173.149
-166.011
-158.389
-150.377
-142.068
-133.557
-124.934
-116.286
-107.698
-99.256
-91.034
-83.107
-75.541
-68.396
-61.734
-55.615
-50.096
-45.231
-41.07
-37.656
-35.027
-33.217
-32.254
-32.156
-32.936
-34.599
-37.143
-40.562
-44.843
-49.968
-55.913
-62.649
-70.142
-78.355
-87.245
-96.765
-106.866
-117.496
-128.601
-140.122
-152.002
-164.183
-176.603
-189.204
-201.926
-214.708
-227.493
-240.221
-252.838
-265.287
-277.516
-289.476
-301.118
-312.399
-323.279
-333.72
-343.69
-353.162
-362.112
-370.518
-378.366
-385.644
-392.345
-398.464
-404.002
-408.962
-413.351
-417.18
-420.464
-423.217
-425.461
-427.215
-428.502
-429.349
-429.781
-429.826
-429.512
-428.868
-427.924
-426.708
-425.251
-423.582
-421.73
-419.721
-417.584
-415.343
-413.023
-410.646
-408.234
-405.804
-403.374
-400.959
-398.573
-396.227
-393.931
-391.69
-389.511
-387.397
-385.348
-383.363
-381.441
-379.576
-377.763
-375.993
-374.259
-372.549
-370.854
-369.16
-367.457
-365.73
-363.967
-362.152
-360.272
-358.314
-356.262
-354.104
-351.826
-349.414
-346.857
-344.142
-341.259
-338.195
-334.942
-331.49
-327.831
-323.957
-319.862
-315.539
-310.986
-306.197
-301.172
-295.908
-290.404
-284.662
-278.683
-272.47
-266.029
-259.363
-252.482
-245.391
-238.1
-230.617
-222.953
-215.115
-207.116
-198.966
-190.679
-182.27
-173.757
-165.157
-156.488
-147.766
-139.008
-130.23
-121.446
-112.667
-103.908
-95.182
-86.505
-77.895
-69.368
-60.938
-52.612
-44.391
-36.273
-28.254
-20.33
-12.5
-4.769
2.857
10.364
17.733
24.95
31.996
38.861
45.55
52.054
58.358
64.424
70.184
75.576
80.552
85.08
89.156
92.8
96.016
98.854
101.416
103.702
105.646
107.093
107.777
107.522
106.302
104.168
101.24
97.949
94.993
93.244
93.728
97.172
103.976
114.255
127.905
144.343
162.328
180.36
196.829
210.417
220.123
225.22
225.035
219.336
208.98
195.185
179.301
162.777
146.969
133.315
123.677
119.611
121.439
129.023
141.916
159.164
179.725
202.127
224.161
243.857
260.198
272.594
280.893
285.423
286.566
285.11
282.411
279.599
277.322
275.966
275.571
276.001
277.176
278.847
280.573
282.062
283.152
283.769
283.97
283.804
283.267
282.381
281.177
279.663
277.851
275.772
273.472
271.005
268.426
265.77
263.058
260.304
257.516
254.703
251.884
249.09
246.355
243.714
241.195
238.771
236.377
233.901
231.191
228.118
224.544
220.414
215.825
211.005
206.244
201.732
197.461
193.366
189.552
186.023
182.499
178.484
173.451
167.363
160.868
154.747
149.405
145.299
143.287
144.661
150.689
161.913
177.919
197.971
221.75
248.811
278.046
307.669
335.836
361.206
383.131
401.293
414.974
423.678
427.718
428.032
425.674
421.481
415.964
409.529
402.929
396.723
390.858
384.897
378.393
371.129
363.119
354.387
344.786
334.26
323.085
311.786
300.819
290.389
280.513
271.136
262.253
253.88
245.922
238.146
230.359
222.47
214.475
206.45
198.432
190.398
182.313
174.148
165.891
157.564
149.179
140.737
132.261
123.797
115.419
107.241
99.342
91.758
84.505
77.581
70.981
64.711
58.763
53.12
47.766
42.691
37.889
33.36
29.094
25.069
21.257
17.621
14.132
10.766
7.501
4.318
1.202
-1.862
-4.878
-7.847
-10.773
-13.661
-16.519
-19.353
-22.169
-24.97
-27.76
-30.541
-33.314
-36.076
-38.82
-41.54
-44.228
-46.879
-49.483
-52.034
-54.523
-56.942
-59.285
-61.544
-63.711
-65.777
-67.736
-69.578
-71.297
-72.888
-74.345
-75.662
-76.837
-77.866
-78.749
-79.485
-80.073
-80.513
-80.805
-80.951
-80.951
-80.808
-80.525
-80.105
-79.554
-78.878
-78.085
-77.182
-76.178
-75.08
-73.895
-72.634
-71.305
-69.917
-68.479
-67.001
-65.494
-63.97
-62.44
-60.916
-59.407
-57.923
-56.474
-55.07
-53.721
-52.434
-51.221
-50.091
-49.057
-48.131
-47.326
-46.654
-46.128
-45.761
-45.566
-45.555
-45.735
-46.112
-46.693
-47.486
-48.495
-49.725
-51.178
-52.86
-54.78
-56.947
-59.367
-62.038
-64.954
-68.109
-71.493
-75.102
-78.922
-82.931
-87.115
-91.463
-95.98
-100.684
-105.568
-110.606
-115.755
-120.961
-126.172
-131.349
-136.431
-141.337
-146.005
-150.395
-154.508
-158.384
-162.028
-165.412
-168.468
-171.1
-173.276
-175.009
-176.32
-177.257
-177.874
-178.235
-178.5
-178.879
-179.507
-180.448
-181.648
-182.976
-184.377
-185.849
-187.444
-189.222
-191.155
-193.177
-195.239
-197.248
-199.077
-200.511
-201.144
-200.535
-198.343
-194.323
-188.525
-181.169
-172.487
-162.788
-152.277
-141.094
-129.602
-118.135
-106.656
-94.927
-82.329
-68.121
-52.325
-35.256
-17.05
1.877
20.834
38.61
52.837
60.838
60.844
51.422
31.441
0.502
-41.56
-93.909
-154.097
-219.222
-286.623
-353.461
-417.121
-475.586
-526.9
-570.016
-605.128
-632.667
-653.291
-668.273
-679.124
-687.185
-693.815
-699.839
-705.377
-710.491
-715.173
-719.007
-721.313
-721.542
-719.267
-714.402
-707.361
-698.697
-688.902
-678.552
-668.26
-658.451
-649.474
-641.544
-634.635
-628.651
-623.477
-618.965
-615.007
-611.557
-608.53
-605.817
-603.278
-600.695
-597.92
-594.864
-591.438
-587.604
-583.333
-578.606
-573.463
-567.997
-562.286
-556.396
-550.378
-544.252
-538.068
-531.897
-525.819
-519.931
-514.3
-508.966
-503.966
-499.32
-495.036
-491.112
-487.522
-484.217
-481.158
-478.316
-475.662
-473.178
-470.838
-468.609
-466.46
-464.36
-462.283
-460.203
-458.098
-455.945
-453.724
-451.42
-449.024
-446.531
-443.934
-441.224
-438.392
-435.432
-432.335
-429.096
-425.71
-422.172
-418.479
-414.63
-410.626
-406.47
-402.165
-397.715
-393.123
-388.394
-383.534
-378.545
-373.433
-368.202
-362.856
-357.398
-351.831
-346.157
-340.377
-334.492
-328.503
-322.409
-316.211
-309.906
-303.495
-296.974
-290.343
-283.6
-276.743
-269.771
-262.681
-255.474
-248.148
-240.704
-233.142
-225.464
-217.67
-209.763
-201.745
-193.621
-185.395
-177.075
-168.669
-160.185
-151.636
-143.035
-134.397
-125.738
-117.078
-108.435
-99.833
-91.294
-82.843
-74.508
-66.315
-58.293
-50.472
-42.883
-35.556
-28.524
-21.817
-15.468
-9.509
-3.969
1.118
5.724
9.82
13.376
16.366
18.764
20.545
21.688
22.172
21.978
21.091
19.496
17.185
14.148
10.381
5.882
0.653
-5.302
-11.975
-19.354
-27.424
-36.168
-45.564
-55.588
-66.21
-77.401
-89.125
-101.346
-114.021
-127.11
-140.564
-154.337
-168.378
-182.634
-197.05
-211.571
-226.139
-240.695
-255.18
-269.531
-283.689
-297.59
-311.174
-324.379
-337.144
-349.409
-361.116
-372.207
-382.628
-392.324
-401.245
-409.341
-416.566
-422.878
-428.236
-432.604
-435.95
-438.246
-439.468
-439.599
-438.624
-436.533
-433.324
-428.995
-423.554
-417.009
-409.374
-400.67
-390.918
-380.146
-368.389
-355.683
-342.072
-327.601
-312.321
-296.286
-279.556
-262.191
-244.255
-225.814
-206.935
-187.689
-168.149
-148.389
-128.485
-108.514
-88.552
-68.676
-48.964
-29.488
-10.319
8.474
26.829
44.685
61.985
78.674
94.7
110.009
124.552
138.286
151.164
163.15
174.211
184.32
193.461
201.624
208.805
215.007
220.233
224.489
227.791
230.159
231.62
232.214
231.975
230.933
229.131
226.616
223.438
219.661
215.332
210.473
205.106
199.249
192.916
186.128
178.886
171.153
162.881
154.042
144.661
134.816
124.606
114.119
103.365
92.351
81.174
69.892
58.496
46.909
34.862
22.107
8.762
-4.919
-18.695
-32.083
-44.67
-56.038
-65.27
-71.591
-74.961
-75.645
-74.282
-72.087
-70.116
-69.526
-72.044
-79.14
-90.905
-106.322
-124.857
-145.981
-170.31
-200.061
-233.464
-266.089
-294.069
-312.356
-321.17
-326.159
-331.458
-341.338
-357.056
-375.344
-394.091
-411.766
-427.405
-441.805
-455.302
-467.716
-479.096
-489.331
-498.379
-506.412
-513.525
-519.727
-525.018
-529.339
-532.568
-534.587
-535.329
-534.777
-532.945
-529.839
-525.425
-519.633
-512.373
-503.578
-493.201
-481.188
-467.507
-452.148
-435.112
-416.438
-396.185
-374.402
-351.134
-326.417
-300.288
-272.795
-244.003
-213.983
-182.819
-150.601
-117.423
-83.389
-48.607
-13.18
22.787
59.192
95.937
132.919
170.032
207.168
244.219
281.074
317.625
353.763
389.379
424.37
458.637
492.083
524.618
556.157
586.616
615.921
644
670.788
696.227
720.263
742.85
763.947
783.523
801.55
818.01
832.89
846.186
857.9
868.041
876.624
883.672
889.212
893.278
895.908
897.146
897.042
895.649
893.024
889.23
884.333
878.401
871.507
863.724
855.128
845.797
835.807
825.238
814.169
802.678
790.844
778.744
766.455
754.052
741.609
729.197
716.884
704.737
692.818
681.187
669.899
659.006
648.558
638.598
629.166
620.299
612.029
604.384
597.388
591.061
585.419
580.474
576.234
572.702
569.88
567.763
566.344
565.614
565.559
566.161
567.402
569.257
571.703
574.71
578.248
582.284
586.783
591.709
597.024
602.689
608.662
614.904
621.373
628.026
634.822
641.719
648.675
655.649
662.601
669.488
676.274
682.918
689.383
695.632
701.63
707.343
712.738
717.783
722.448
726.705
730.526
733.887
736.765
739.137
740.985
742.292
743.041
743.221
742.82
741.83
740.244
738.057
735.267
731.873
727.876
723.278
718.085
712.302
705.938
699.001
691.503
683.456
674.875
665.773
656.169
646.081
635.527
624.53
613.111
601.295
589.108
576.575
563.724
550.585
537.186
523.558
509.733
495.743
481.619
467.394
453.101
438.773
424.442
410.14
395.901
381.757
367.738
353.876
340.202
326.747
313.539
300.607
287.98
275.682
263.739
252.176
241.015
230.278
219.984
210.152
200.796
191.932
183.571
175.724
168.396
161.591
155.311
149.556
144.328
139.624
135.44
131.768
128.598
125.919
123.717
121.978
120.68
119.799
119.309
119.185
119.401
119.937
120.763
121.842
123.133
124.593
126.181
127.861
129.596
131.347
133.079
134.757
136.357
137.866
139.27
140.552
141.69
142.652
143.428
144.025
144.469
144.812
145.074
145.244
145.298
145.196
144.916
144.484
143.877
142.991
141.807
140.34
138.731
137.335
136.27
135.367
134.445
133.257
131.476
128.921
125.074
118.87
109.762
97.694
82.844
66.048
48.162
29.628
11.454
-4.593
-17.205
-25.23
-27.953
-26.049
-20.156
-10.425
2.336
16.786
31.441
44.081
52.872
57.583
57.813
52.749
42.04
25.321
3.566
-20.232
-43.549
-65.64
-87.42
-110.718
-135.878
-160.309
-178.833
-186.277
-179.936
-159.773
-129.961
-97.191
-67.889
-48.704
-43.138
-50.253
-66.297
-84.687
-99.697
-108.964
-113.109
-115.139
-117.574
-121.15
-125.436
-129.338
-132.471
-135.283
-138.161
-141.36
-144.85
-148.393
-151.901
-155.384
-158.813
-162.158
-165.428
-168.676
-171.998
-175.494
-179.213
-183.165
-187.354
-191.786
-196.469
-201.415
-206.628
-212.108
-217.855
-223.874
-230.167
-236.734
-243.574
-250.678
-258.042
-265.66
-273.53
-281.653
-290.032
-298.668
-307.559
-316.702
-326.091
-335.718
-345.571
-355.64
-365.91
-376.365
-386.987
-397.759
-408.659
-419.665
-430.752
-441.893
-453.058
-464.217
-475.337
-486.383
-497.32
-508.111
-518.717
-529.099
-539.217
-549.03
-558.496
-567.575
-576.224
-584.402
-592.07
-599.186
-605.713
-611.613
-616.852
-621.397
-625.215
-628.28
-630.566
-632.049
-632.71
-632.534
-631.507
-629.62
-626.867
-623.246
-618.761
-613.415
-607.219
-600.187
-592.335
-583.686
-574.264
-564.097
-553.218
-541.66
-529.463
-516.666
-503.312
-489.446
-475.116
-460.369
-445.255
-429.824
-414.127
-398.215
-382.139
-365.95
-349.698
-333.431
-317.198
-301.045
-285.015
-269.152
-253.495
-238.081
-222.946
-208.121
-193.635
-179.514
-165.781
-152.455
-139.551
-127.083
-115.061
-103.49
-92.375
-81.715
-71.509
-61.751
-52.435
-43.552
-35.09
-27.036
-19.376
-12.096
-5.176
1.399
7.65
13.594
19.252
24.643
29.788
34.707
39.418
43.942
48.297
52.502
56.572
60.527
64.38
68.147
71.842
75.477
79.065
82.616
86.141
89.649
93.148
96.646
100.151
103.669
107.208
110.773
114.373
118.013
121.699
125.439
129.24
133.108
137.05
141.073
145.185
149.393
153.703
158.124
162.661
167.322
172.113
177.04
182.107
187.322
192.686
198.205
203.882
209.718
215.716
221.874
228.193
234.669
241.299
248.078
254.996
262.046
269.216
276.493
283.862
291.305
298.805
306.34
313.889
321.426
328.927
336.364
343.71
350.935
358.011
364.907
371.595
378.045
384.229
390.118
395.686
400.908
405.758
410.215
414.258
417.863
421.011
423.685
425.869
427.556
428.736
429.395
429.535
429.165
428.298
426.951
425.136
422.848
420.099
416.922
413.322
409.282
404.794
399.85
394.474
388.747
382.714
376.361
369.777
363.192
356.689
350.237
343.885
337.469
331.374
326.838
323.704
320.887
316.665
307.683
294.019
279.158
266.496
260.851
262.762
267.625
271.869
271.712
266.285
258.988
251.94
246.447
242.903
239.841
236.537
233.033
229.289
225.478
221.64
217.774
214.065
210.555
207.023
203.156
198.56
193.553
189.201
185.219
180.939
175.236
165.68
153.277
141.361
133.433
135.248
149.533
174.306
205.915
236.803
258.173
264.964
254.936
230.264
197.911
164.309
133.742
107.682
84.46
62.918
43.928
29.659
21.62
18.916
19.611
22.096
27.076
37.307
53.339
72.852
91.198
102.782
105.068
98.5
85.822
71.14
58.556
52.769
56.344
69.958
92.016
117.335
142.561
164.808
181.809
194.118
200.072
199.88
196.518
191.895
189.857
191.754
194.965
198.084
199.836
200.046
200.797
202.81
205.424
208.262
210.788
212.743
214.431
215.818
216.456
216.245
215.358
213.856
211.863
209.404
206.303
202.525
198.152
193.188
187.629
181.484
174.727
167.376
159.503
151.148
142.356
133.176
123.641
113.802
103.715
93.426
82.988
72.449
61.854
51.247
40.666
30.143
19.715
9.422
-0.698
-10.606
-20.264
-29.635
-38.676
-47.346
-55.608
-63.431
-70.787
-77.655
-84.013
-89.843
-95.133
-99.872
-104.055
-107.679
-110.745
-113.257
-115.221
-116.651
-117.56
-117.969
-117.9
-117.376
-116.424
-115.075
-113.361
-111.315
-108.973
-106.372
-103.55
-100.549
-97.409
-94.173
-90.884
-87.586
-84.322
-81.136
-78.07
-75.164
-72.457
-69.986
-67.785
-65.885
-64.316
-63.105
-62.275
-61.846
-61.835
-62.256
-63.12
-64.434
-66.202
-68.425
-71.099
-74.22
-77.78
-81.766
-86.165
-90.961
-96.135
-101.667
-107.533
-113.709
-120.168
-126.884
-133.826
-140.966
-148.274
-155.72
-163.272
-170.902
-178.58
-186.278
-193.968
-201.625
-209.224
-216.741
-224.157
-231.451
-238.608
-245.61
-252.446
-259.104
-265.576
-271.853
-277.93
-283.803
-289.471
-294.932
-300.186
-305.236
-310.083
-314.731
-319.185
-323.448
-327.526
-331.426
-335.152
-338.71
-342.106
-345.344
-348.429
-351.365
-354.153
-356.795
-359.292
-361.643
-363.844
-365.893
-367.783
-369.508
-371.059
-372.427
-373.6
-374.565
-375.308
-375.814
-376.068
-376.053
-375.753
-375.151
-374.233
-372.982
-371.385
-369.426
-367.094
-364.376
-361.26
-357.736
-353.794
-349.426
-344.626
-339.39
-333.715
-327.601
-321.049
-314.064
-306.654
-298.827
-290.593
-281.968
-272.965
-263.603
-253.903
-243.886
-233.577
-223.003
-212.193
-201.176
-189.984
-178.648
-167.202
-155.674
-144.096
-132.494
-120.896
-109.331
-97.824
-86.4
-75.086
-63.908
-52.894
-42.074
-31.476
-21.125
-11.046
-1.258
8.223
17.385
26.225
34.738
42.927
50.799
58.359
65.609
72.551
79.188
85.535
91.622
97.475
103.111
108.546
113.791
118.845
123.699
128.321
132.65
136.623
140.176
143.256
145.829
147.875
149.39
150.355
150.734
150.514
149.702
148.328
146.451
144.148
141.51
138.69
135.896
133.346
131.271
129.787
128.875
128.444
128.306
128.292
128.345
128.352
128.115
127.722
127.521
127.956
129.621
132.869
137.646
143.772
151.015
158.503
164.742
168.119
166.932
159.571
144.732
121.47
89.047
48.348
1.931
-48.023
-99.895
-153.505
-209.615
-266.997
-322.091
-369.346
-403.208
-421.074
-423.036
-412.727
-395.875
-378.072
-365.714
-362.813
-369.996
-384.818
-400.984
-412.863
-417.509
-415.092
-409.078
-402.302
-395.868
-389.786
-382.992
-375.193
-367.045
-359.012
-351.414
-344.262
-337.255
-330.213
-323.043
-315.554
-307.51
-298.797
-289.422
-279.456
-269.03
-258.194
-246.922
-235.231
-223.189
-210.869
-198.37
-185.777
-173.159
-160.62
-148.298
-136.34
-124.907
-114.129
-104.104
-94.912
-86.605
-79.235
-72.857
-67.487
-63.116
-59.709
-57.199
-55.549
-54.75
-54.794
-55.686
-57.422
-59.981
-63.357
-67.546
-72.544
-78.36
-84.981
-92.37
-100.539
-109.521
-119.395
-130.302
-142.304
-155.382
-169.483
-184.494
-200.277
-216.688
-233.523
-250.525
-267.47
-284.141
-300.367
-316.033
-330.962
-344.939
-357.702
-368.924
-378.364
-385.893
-391.411
-394.882
-396.335
-395.828
-393.523
-389.69
-384.541
-378.251
-370.959
-362.735
-353.708
-344.056
-333.974
-323.701
-313.428
-303.276
-293.366
-283.795
-274.599
-265.784
-257.274
-248.903
-240.562
-232.196
-223.774
-215.315
-206.817
-198.25
-189.597
-180.839
-171.963
-162.974
-153.866
-144.624
-135.268
-125.837
-116.401
-107.071
-97.926
-89.009
-80.354
-71.971
-63.868
-56.056
-48.528
-41.261
-34.239
-27.449
-20.886
-14.551
-8.436
-2.523
3.209
8.788
14.236
19.566
24.791
29.92
34.96
39.91
44.767
49.515
54.143
58.644
63.006
67.222
71.28
75.165
78.863
82.361
85.643
88.689
91.479
93.993
96.207
98.102
99.655
100.848
101.659
102.07
102.064
101.625
100.74
99.397
97.585
95.299
92.534
89.289
85.564
81.365
76.698
71.574
66.005
60.01
53.608
46.821
39.675
32.198
24.422
16.38
8.109
-0.356
-8.976
-17.709
-26.517
-35.356
-44.187
-52.969
-61.66
-70.22
-78.607
-86.783
-94.708
-102.346
-109.663
-116.624
-123.201
-129.365
-135.095
-140.369
-145.167
-149.474
-153.275
-156.559
-159.318
-161.547
-163.241
-164.402
-165.033
-165.144
-164.747
-163.859
-162.496
-160.677
-158.422
-155.753
-152.693
-149.264
-145.488
-141.384
-136.974
-132.286
-127.344
-122.181
-116.825
-111.309
-105.667
-99.935
-94.143
-88.323
-82.501
-76.694
-70.923
-65.199
-59.532
-53.934
-48.422
-43.01
-37.719
-32.566
-27.553
-22.682
-17.941
-13.305
-8.759
-4.277
0.165
4.573
8.934
13.184
17.223
20.962
24.336
27.312
29.893
32.026
33.626
34.759
35.484
35.848
35.943
35.631
34.693
33.199
31.314
29.001
26.294
23.029
18.786
13.713
8.138
2.006
-4.742
-11.943
-19.344
-25.97
-30.286
-31.511
-29.248
-23.084
-12.915
1.04
18.004
35.934
51.832
63.212
68.063
64.743
52.183
29.738
-2.345
-42.377
-87.358
-134.279
-180.348
-222.894
-259.769
-289.105
-309.684
-321.498
-325.748
-323.9
-317.571
-308.701
-298.842
-289.485
-281.912
-276.568
-273.243
-271.542
-270.763
-269.938
-268.458
-265.772
-261.421
-255.443
-248.04
-239.517
-230.447
-221.388
-212.632
-204.368
-196.642
-189.323
-182.325
-175.511
-168.631
-161.518
-154.09
-146.331
-138.32
-130.127
-121.761
-113.226
-104.505
-95.585
-86.487
-77.233
-67.841
-58.366
-48.872
-39.456
-30.255
-21.365
-12.848
-4.744
2.934
10.178
16.967
23.297
29.173
34.594
39.558
44.064
48.1
51.673
54.799
57.506
59.832
61.812
63.476
64.857
65.987
66.893
67.608
68.157
68.56
68.843
69.037
69.173
69.286
69.41
69.575
69.816
70.163
70.647
71.293
72.125
73.161
74.419
75.915
77.661
79.668
81.944
84.496
87.327
90.438
93.829
97.494
101.427
105.617
110.052
114.715
119.592
124.662
129.906
135.302
140.829
146.463
152.18
157.957
163.768
169.586
175.386
181.142
186.831
192.425
197.904
203.245
208.428
213.437
218.255
222.869
227.266
231.437
235.373
239.069
242.521
245.726
248.685
251.399
253.873
256.114
258.128
259.926
261.518
262.916
264.134
265.187
266.088
266.854
267.501
268.046
268.504
268.892
269.225
269.519
269.787
270.042
270.296
270.558
270.837
271.139
271.468
271.828
272.218
272.637
273.082
273.547
274.024
274.504
274.977
275.428
275.844
276.207
276.501
276.706
276.802
276.769
276.584
276.224
275.668
274.891
273.871
272.585
271.01
269.126
266.912
264.348
261.418
258.105
254.396
250.28
245.746
240.788
235.402
229.587
223.344
216.677
209.593
202.102
194.218
185.954
177.33
168.366
159.085
149.512
139.674
129.602
119.326
108.878
98.295
87.61
76.861
66.084
55.318
44.6
33.968
23.461
13.114
2.964
-6.954
-16.606
-25.959
-34.983
-43.649
-51.931
-59.803
-67.245
-74.238
-80.765
-86.813
-92.371
-97.431
-101.986
-106.033
-109.572
-112.604
-115.133
-117.166
-118.711
-119.778
-120.382
-120.538
-120.262
-119.571
-118.482
-117.014
-115.187
-113.024
-110.547
-107.78
-104.748
-101.475
-97.988
-94.309
-90.459
-86.46
-82.324
-78.066
-73.698
-69.23
-64.677
-60.047
-55.343
-50.566
-45.714
-40.778
-35.75
-30.618
-25.371
-20.001
-14.504
-8.881
-3.141
2.705
8.644
14.661
20.753
26.9
33.074
39.235
45.308
51.217
56.909
62.332
67.466
72.323
76.878
81.141
85.226
89.16
92.893
96.299
99.032
100.822
101.627
101.391
100.068
97.878
95.368
93.559
93.825
97.335
104.388
114.486
127.791
144.566
165.174
190.707
218.475
242.913
258.791
259.733
244.373
217.967
185.576
152.568
122.66
94.051
66.128
42.206
24.438
16.574
21.462
35.069
53.479
72.958
88.441
99.272
105.675
107.055
104.228
97.312
86.344
72.554
57.433
42.214
27.784
14.602
2.707
-7.981
-17.507
-26.139
-34.321
-42.29
-50.157
-57.948
-65.536
-72.85
-79.892
-86.605
-92.934
-98.871
-104.42
-109.617
-114.53
-119.19
-123.609
-127.797
-131.746
-135.459
-138.943
-142.198
-145.224
-148.016
-150.571
-152.885
-154.954
-156.773
-158.339
-159.648
-160.699
-161.498
-162.05
-162.363
-162.45
-162.317
-161.973
-161.421
-160.666
-159.711
-158.559
-157.211
-155.667
-153.927
-151.99
-149.853
-147.513
-144.964
-142.201
-139.215
-135.997
-132.54
-128.833
-124.867
-120.631
-116.115
-111.308
-106.199
-100.779
-95.035
-88.959
-82.54
-75.768
-68.634
-61.132
-53.254
-44.993
-36.348
-27.314
-17.892
-8.084
2.108
12.675
23.608
34.897
46.527
58.481
70.739
83.279
96.075
109.1
122.324
135.714
149.235
162.85
176.519
190.201
203.854
217.433
230.894
244.191
257.277
270.105
282.629
294.802
306.576
317.907
328.749
339.059
348.796
357.921
366.396
374.187
381.263
387.597
393.164
397.944
401.92
405.081
407.418
408.928
409.612
409.476
408.531
406.791
404.279
401.017
397.037
392.371
387.058
381.139
374.661
367.672
360.225
352.375
344.179
335.699
326.997
318.135
309.18
300.197
291.252
282.41
273.737
265.296
257.15
249.36
241.984
235.078
228.695
222.884
217.691
213.159
209.324
206.219
203.871
202.304
201.534
201.572
202.425
204.093
206.569
209.844
213.9
218.716
224.264
230.512
237.421
244.949
253.049
261.671
270.758
280.254
290.096
300.221
310.562
321.052
331.622
342.201
352.719
363.104
373.286
383.194
392.76
401.917
410.599
418.743
426.29
433.184
439.373
444.807
449.443
453.241
456.165
458.187
459.281
459.43
458.619
456.841
454.093
450.378
445.706
440.091
433.55
426.106
417.788
408.628
398.666
387.944
376.506
364.402
351.681
338.397
324.607
310.37
295.744
280.787
265.556
250.111
234.516
218.829
203.114
187.422
171.8
156.295
140.956
125.829
110.965
96.407
82.192
68.361
54.954
42.012
29.581
17.696
6.383
-4.33
-14.429
-23.88
-32.631
-40.641
-47.868
-54.306
-59.995
-64.958
-69.21
-72.773
-75.63
-77.841
-79.57
-80.845
-81.59
-81.746
-81.178
-79.974
-78.539
-77.043
-75.436
-73.904
-72.703
-72.242
-73.271
-75.974
-79.901
-84.871
-90.803
-97.409
-104.459
-111.155
-115.961
-117.88
-116.47
-111.226
-101.937
-88.427
-70.332
-48.329
-24.237
0.044
22.574
41.562
55.653
63.29
62.673
53.085
35.851
13.084
-13.442
-41.446
-70.241
-98.827
-122.289
-137.504
-141.965
-133.52
-115.951
-92.919
-67.373
-43.825
-23.674
-7.456
3.952
11.015
13.659
11.868
6.458
-1.422
-10.112
-18.324
-25.43
-31.125
-35.467
-38.565
-40.499
-41.57
-42.204
-42.65
-43.017
-43.304
-43.394
-43.229
-42.808
-42.095
-41.058
-39.697
-38.028
-36.091
-33.948
-31.629
-29.139
-26.479
-23.64
-20.617
-17.411
-14.016
-10.427
-6.638
-2.645
1.559
5.978
10.614
15.468
20.535
25.807
31.27
36.907
42.696
48.613
54.633
60.733
66.888
73.075
79.27
85.447
91.581
97.646
103.617
109.468
115.175
120.713
126.059
131.192
136.09
140.735
145.107
149.189
152.966
156.423
159.547
162.328
164.757
166.829
168.54
169.887
170.872
171.499
171.773
171.701
171.293
170.561
169.517
168.178
166.557
164.673
162.544
160.188
157.625
154.876
151.96
148.899
145.714
142.426
139.056
135.625
132.154
128.664
125.175
121.707
118.279
114.91
111.618
108.419
105.33
102.365
99.538
96.86
94.343
91.997
89.829
87.848
86.057
84.463
83.068
81.875
80.884
80.096
79.509
79.123
78.933
78.937
79.128
79.502
80.051
80.766
81.639
82.659
83.814
85.089
86.472
87.945
89.49
91.089
92.722
94.365
95.997
97.593
99.128
100.573
101.903
103.088
104.099
104.904
105.474
105.776
105.778
105.447
104.75
103.655
102.129
100.139
97.653
94.64
91.071
86.916
82.148
76.742
70.675
63.926
56.477
48.313
39.421
29.794
19.427
8.317
-3.533
-16.115
-29.421
-43.435
-58.139
-73.511
-89.525
-106.149
-123.349
-141.089
-159.326
-178.015
-197.109
-216.556
-236.302
-256.292
-276.467
-296.766
-317.129
-337.493
-357.794
-377.969
-397.956
-417.69
-437.111
-456.159
-474.775
-492.902
-510.488
-527.48
-543.832
-559.497
-574.437
-588.613
-601.993
-614.548
-626.253
-637.089
-647.041
-656.096
-664.248
-671.494
-677.835
-683.277
-687.829
-691.507
-694.326
-696.31
-697.481
-697.868
-697.501
-696.414
-694.64
-692.213
-689.171
-685.554
-681.403
-676.762
-671.674
-666.181
-660.326
-654.151
-647.696
-641.003
-634.107
-627.043
-619.843
-612.54
-605.167
-597.76
-590.35
-582.962
-575.613
-568.317
-561.088
-553.944
-546.903
-539.979
-533.19
-526.547
-520.07
-513.785
-507.717
-501.89
-496.322
-491.011
-485.974
-481.235
-476.845
-472.886
-469.406
-466.416
-463.914
-461.873
-460.288
-459.213
-458.643
-458.505
-458.817
-459.625
-461.097
-463.593
-467.243
-471.907
-477.44
-483.613
-490.074
-496.508
-502.298
-506.467
-508.573
-508.644
-506.857
-503.804
-500.232
-496.9
-495.01
-495.999
-500.733
-509.56
-522.541
-539.327
-558.654
-578.96
-599.214
-617.938
-635.463
-652.668
-667.167
-677.569
-682.119
-679.04
-672.036
-664.193
-657.522
-654.709
-654.666
-656.299
-659.545
-663.092
-666.536
-669.845
-672.463
-674.218
-674.921
-674.113
-671.599
-667.511
-662.149
-655.782
-648.558
-640.491
-631.506
-621.636
-610.955
-599.471
-587.172
-574.031
-560.045
-545.271
-529.806
-513.736
-497.127
-480.032
-462.495
-444.572
-426.327
-407.82
-389.11
-370.251
-351.297
-332.304
-313.328
-294.428
-275.66
-257.075
-238.723
-220.65
-202.904
-185.533
-168.589
-152.117
-136.159
-120.752
-105.931
-91.727
-78.17
-65.285
-53.091
-41.608
-30.848
-20.824
-11.545
-3.016
4.76
11.783
18.06
23.595
28.399
32.483
35.861
38.551
40.571
41.943
42.69
42.837
42.41
41.439
39.953
37.984
35.564
32.724
29.5
25.925
22.033
17.858
13.435
8.797
3.979
-0.988
-6.069
-11.233
-16.448
-21.682
-26.905
-32.087
-37.197
-42.207
-47.089
-51.813
-56.355
-60.687
-64.784
-68.623
-72.179
-75.43
-78.357
-80.938
-83.156
-84.993
-86.434
-87.464
-88.071
-88.243
-87.971
-87.246
-86.062
-84.413
-82.296
-79.709
-76.652
-73.124
-69.131
-64.676
-59.767
-54.413
-48.624
-42.413
-35.796
-28.789
-21.411
-13.684
-5.631
2.723
11.351
20.223
29.31
38.578
47.995
57.525
67.134
76.785
86.442
96.068
105.625
115.078
124.389
133.522
142.44
151.11
159.497
167.57
175.296
182.648
189.597
196.12
202.194
207.799
212.917
217.535
221.639
225.222
228.28
230.81
232.816
234.303
235.282
235.767
235.775
235.329
234.451
233.168
231.509
229.507
227.194
224.608
221.786
218.767
215.594
212.31
208.959
205.588
202.242
198.965
195.803
192.799
189.998
187.441
185.17
183.223
181.639
180.452
179.697
179.405
179.601
180.308
181.545
183.324
185.656
188.543
191.981
195.965
200.488
205.539
211.103
217.164
223.701
230.696
238.129
245.975
254.201
262.77
271.638
280.759
290.087
299.568
309.147
318.768
328.375
337.921
347.364
356.657
365.748
374.58
383.083
391.204
398.903
406.144
412.889
419.126
424.851
430.092
434.911
439.346
443.409
447.098
450.381
453.231
455.63
457.551
458.97
459.866
460.21
459.995
459.242
457.924
455.988
453.331
449.78
445.237
439.675
433.098
425.564
417.168
408.02
398.284
388.175
377.853
367.445
357.044
346.705
336.567
326.833
317.767
309.676
302.807
297.367
293.453
291.043
289.977
289.925
290.5
291.371
292.349
293.334
294.617
296.777
300.441
306.517
315.749
328.472
344.823
364.611
386.833
409.922
432.235
451.642
466.215
474.653
475.896
469.553
456.425
438.218
416.917
395.199
375.84
361.006
352.648
351.969
358.942
372.59
391.532
413.688
436.622
458.411
477.301
492.044
502.275
508.195
510.304
509.606
507.41
504.656
502.147
500.468
499.776
500.106
501.408
503.396
505.68
508.051
510.386
512.641
514.905
517.211
519.567
522.031
524.655
527.45
530.404
533.476
536.602
539.747
542.902
546.057
549.217
552.379
555.535
558.68
561.812
564.927
568.025
571.101
574.15
577.168
580.151
583.096
585.995
588.839
591.612
594.295
596.866
599.305
601.594
603.713
605.644
607.369
608.867
610.122
611.116
611.832
612.253
612.363
612.144
611.582
610.663
609.375
607.705
605.644
603.181
600.309
597.023
593.32
589.197
584.657
579.7
574.333
568.562
562.398
555.852
548.938
541.671
534.072
526.159
517.957
509.489
500.783
491.865
482.767
473.518
464.151
454.698
445.193
435.671
426.164
416.709
407.339
398.088
388.99
380.077
371.38
362.929
354.752
346.875
339.321
332.113
325.268
318.803
312.731
307.062
301.805
296.962
292.535
288.521
284.915
281.708
278.888
276.439
274.342
272.578
271.121
269.945
269.022
268.321
267.808
267.45
267.21
267.053
266.941
266.837
266.703
266.503
266.2
265.759
265.146
264.331
263.282
261.972
260.376
258.473
256.241
253.666
250.734
247.436
243.764
239.717
235.296
230.504
225.35
219.846
214.005
207.846
201.39
194.661
187.685
180.492
173.114
165.583
157.934
150.204
142.43
134.649
126.899
119.217
111.639
104.201
96.937
89.879
83.058
76.501
70.235
64.281
58.659
53.386
48.473
43.931
39.763
35.972
32.556
29.508
26.82
24.479
22.467
20.764
19.349
18.193
17.268
16.541
15.975
15.533
15.176
14.863
14.55
14.194
13.753
13.183
12.443
11.492
10.288
8.793
6.97
4.783
2.199
-0.81
-4.272
-8.211
-12.646
-17.593
-23.064
-29.065
-35.603
-42.676
-50.283
-58.415
-67.059
-76.201
-85.822
-95.9
-106.406
-117.31
-128.576
-140.167
-152.041
-164.153
-176.454
-188.893
-201.424
-213.999
-226.575
-239.108
-251.553
-263.867
-276.008
-287.934
-299.598
-310.95
-321.936
-332.506
-342.615
-352.224
-361.302
-369.817
-377.737
-385.033
-391.683
-397.657
-402.923
-407.446
-411.179
-414.105
-416.232
-417.587
-418.222
-418.187
-417.533
-416.324
-414.629
-412.506
-410.006
-407.167
-404.022
-400.627
-397.05
-393.364
-389.646
-385.924
-382.201
-378.448
-374.569
-370.554
-366.487
-362.499
-358.793
-355.585
-352.987
-351.084
-350.013
-349.477
-348.774
-347.036
-343.151
-336.208
-325.805
-311.871
-294.492
-274.599
-254.016
-234.768
-219.242
-209.617
-207.154
-212.53
-226.221
-247.565
-274.581
-305.144
-336.658
-366.303
-392.288
-413.246
-427.662
-435.193
-436.794
-433.527
-427.116
-419.818
-412.969
-407.764
-405.766
-407.629
-413.246
-422.401
-434.161
-447.219
-460.938
-474.757
-487.952
-500.268
-511.607
-521.918
-531.605
-541.161
-550.763
-560.496
-570.378
-580.293
-590.223
-600.17
-610.022
-619.681
-629.106
-638.295
-647.322
-656.271
-665.176
-674.041
-682.855
-691.601
-700.28
-708.895
-717.444
-725.918
-734.302
-742.585
-750.762
-758.82
-766.741
-774.496
-782.049
-789.363
-796.411
-803.166
-809.606
-815.71
-821.454
-826.815
-831.774
-836.307
-840.39
-844.002
-847.116
-849.709
-851.758
-853.24
-854.135
-854.424
-854.088
-853.11
-851.476
-849.17
-846.182
-842.503
-838.125
-833.045
-827.26
-820.771
-813.581
-805.695
-797.122
-787.871
-777.956
-767.392
-756.197
-744.389
-731.991
-719.025
-705.518
-691.494
-676.981
-662.007
-646.603
-630.801
-614.634
-598.136
-581.341
-564.286
-547.008
-529.542
-511.927
-494.2
-476.397
-458.555
-440.711
-422.9
-405.158
-387.519
-370.017
-352.684
-335.552
-318.652
-302.012
-285.66
-269.622
-253.923
-238.589
-223.64
-209.099
-194.985
-181.318
-168.116
-155.394
-143.168
-131.451
-120.256
-109.594
-99.475
-89.908
-80.899
-72.455
-64.581
-57.279
-50.553
-44.402
-38.828
-33.829
-29.403
-25.545
-22.254
-19.522
-17.345
-15.715
-14.625
-14.067
-14.031
-14.508
-15.487
-16.957
-18.904
-21.318
-24.182
-27.484
-31.208
-35.337
-39.856
-44.748
-49.994
-55.576
-61.475
-67.673
-74.149
-80.883
-87.855
-95.045
-102.431
-109.994
-117.711
-125.563
-133.527
-141.583
-149.71
-157.886
-166.091
-174.303
-182.503
-190.668
-198.78
-206.818
-214.762
-222.595
-230.297
-237.849
-245.235
-252.438
-259.441
-266.229
-272.786
-279.098
-285.152
-290.934
-296.432
-301.635
-306.53
-311.109
-315.361
-319.277
-322.849
-326.07
-328.934
-331.434
-333.565
-335.325
-336.709
-337.716
-338.345
-338.594
-338.464
-337.958
-337.075
-335.82
-334.198
-332.212
-329.87
-327.179
-324.145
-320.776
-317.082
-313.072
-308.757
-304.146
-299.25
-294.082
-288.655
-282.985
-277.088
-270.979
-264.671
-258.178
-251.514
-244.694
-237.734
-230.649
-223.455
-216.166
-208.803
-201.389
-193.948
-186.501
-179.068
-171.663
-164.305
-157.018
-149.83
-142.767
-135.858
-129.123
-122.582
-116.259
-110.171
-104.332
-98.747
-93.404
-88.291
-83.395
-78.704
-74.22
-69.93
-65.799
-61.779
-57.795
-53.791
-49.748
-45.657
-41.529
-37.385
-33.191
-28.967
-24.825
-20.788
-16.833
-12.857
-8.539
-3.648
1.711
7.411
13.274
18.837
23.749
27.467
28.867
27.057
21.724
12.852
1.039
-12.496
-26.868
-40.904
-52.454
-59.491
-60.334
-53.709
-39.617
-18.966
7.782
39.777
74.888
110.677
144.366
173.065
195.147
209.922
216.098
213.267
203.086
186.849
166.172
142.681
115.947
88.319
65.526
53.239
56.465
75.153
104.874
140.522
178.145
216.816
254.943
290.651
321.628
344.585
360.608
371.899
380.651
390.122
400.308
410.719
421.505
432.05
442.989
454.822
467.229
479.982
492.515
504.444
515.772
526.467
536.534
545.97
554.738
562.891
570.479
577.475
583.852
589.613
594.777
599.407
603.52
607.045
609.926
612.092
613.495
614.17
614.143
613.426
612.019
609.879
606.964
603.243
598.637
592.961
585.982
577.471
567.281
555.429
541.977
526.989
510.541
492.679
473.48
453.067
431.592
409.241
386.229
362.8
339.271
316.094
293.803
272.961
254.064
237.426
223.281
211.821
203.194
197.538
194.928
195.372
198.829
205.224
214.448
226.349
240.693
257.119
275.166
294.298
314.018
333.954
353.802
373.306
392.248
410.423
427.682
443.937
459.128
473.206
486.123
497.841
508.374
517.811
526.301
534.055
541.252
548.006
554.398
560.472
566.258
571.775
577.009
581.909
586.418
590.498
594.125
597.291
599.975
602.131
603.702
604.615
604.824
604.311
603.074
601.127
598.495
595.215
591.342
586.956
582.13
576.932
571.423
565.654
559.684
553.576
547.394
541.196
535.039
528.968
523.032
517.273
511.729
506.434
501.413
496.683
492.26
488.162
484.399
480.983
477.915
475.195
472.819
470.777
469.058
467.643
466.509
465.628
464.967
464.494
464.171
463.956
463.808
463.681
463.53
463.309
462.971
462.471
461.761
460.797
459.536
457.935
455.952
453.55
450.691
447.342
443.47
439.048
434.052
428.46
422.256
415.426
407.961
399.858
391.115
381.735
371.726
361.101
349.877
338.075
325.72
312.843
299.476
285.658
271.428
256.829
241.908
226.709
211.284
195.681
179.954
164.153
148.332
132.543
116.839
101.272
85.893
70.752
55.894
41.365
27.206
13.456
0.151
-12.679
-25.004
-36.798
-48.041
-58.713
-68.799
-78.289
-87.175
-95.456
-103.131
-110.206
-116.692
-122.601
-127.952
-132.763
-137.058
-140.862
-144.201
-147.108
-149.614
-151.752
-153.558
-155.068
-156.318
-157.348
-158.193
-158.889
-159.469
-159.966
-160.408
-160.822
-161.229
-161.646
-162.088
-162.571
-163.104
-163.698
-164.359
-165.097
-165.919
-166.834
-167.845
-168.945
-170.121
-171.355
-172.624
-173.901
-175.154
-176.343
-177.432
-178.384
-179.174
-179.778
-180.161
-180.276
-180.066
-179.459
-178.404
-176.87
-174.827
-172.252
-169.148
-165.528
-161.446
-156.989
-152.217
-147.155
-141.799
-136.126
-130.134
-123.853
-117.331
-110.608
-103.691
-96.553
-89.168
-81.518
-73.584
-65.293
-56.452
-46.896
-36.602
-25.675
-14.435
-3.193
8.03
19.215
30.312
41.564
53.238
65.688
79.726
95.985
114.406
134.804
156.657
178.669
199.732
218.689
233.775
243.539
247.168
243.993
233.958
218.036
197.155
172.541
146.127
119.818
95.482
74.926
59.476
49.647
45.618
47.043
52.906
61.815
71.992
81.764
89.728
94.954
97.003
95.833
91.822
85.776
78.809
71.834
65.569
60.462
56.639
54.14
52.878
52.572
52.857
53.503
54.415
55.627
57.263
59.386
62.024
65.214
68.982
73.325
78.191
83.488
89.115
95
101.092
107.36
113.77
120.273
126.815
133.338
139.787
146.118
152.287
158.253
163.983
169.451
174.639
179.537
184.132
188.404
192.332
195.894
199.068
201.837
204.189
206.112
207.6
208.651
209.269
209.461
209.234
208.6
207.572
206.165
204.394
202.28
199.843
197.103
194.083
190.808
187.3
183.583
179.682
175.62
171.419
167.104
162.695
158.213
153.678
149.107
144.518
139.926
135.348
130.795
126.28
121.812
117.402
113.054
108.776
104.569
100.433
96.368
92.37
88.435
84.557
80.727
76.938
73.18
69.443
65.716
61.987
58.245
54.478
50.673
46.816
42.896
38.901
34.817
30.633
26.337
21.918
17.365
12.668
7.818
2.806
-2.376
-7.737
-13.281
-19.014
-24.941
-31.064
-37.386
-43.908
-50.63
-57.551
-64.669
-71.982
-79.485
-87.175
-95.046
-103.093
-111.309
-119.688
-128.222
-136.904
-145.725
-154.676
-163.749
-172.934
-182.221
-191.601
-201.062
-210.594
-220.185
-229.824
-239.498
-249.195
-258.903
-268.609
-278.299
-287.96
-297.58
-307.145
-316.64
-326.053
-335.371
-344.578
-353.663
-362.611
-371.408
-380.042
-388.499
-396.766
-404.829
-412.676
-420.293
-427.669
-434.792
-441.649
-448.228
-454.52
-460.514
-466.2
-471.57
-476.615
-481.329
-485.706
-489.742
-493.433
-496.777
-499.773
-502.421
-504.723
-506.682
-508.302
-509.589
-510.55
-511.193
-511.527
-511.564
-511.315
-510.793
-510.012
-508.987
-507.733
-506.268
-504.607
-502.77
-500.773
-498.637
-496.379
-494.019
-491.575
-489.067
-486.513
-483.931
-481.339
-478.753
-476.189
-473.661
-471.184
-468.769
-466.428
-464.17
-462.003
-459.935
-457.97
-456.111
-454.362
-452.721
-451.189
-449.762
-448.436
-447.206
-446.065
-445.004
-444.016
-443.09
-442.214
-441.378
-440.568
-439.773
-438.979
-438.172
-437.34
-436.467
-435.541
-434.547
-433.473
-432.307
-431.036
-429.65
-428.139
-426.493
-424.703
-422.764
-420.668
-418.41
-415.986
-413.39
-410.621
-407.68
-404.569
-401.289
-397.844
-394.236
-390.472
-386.555
-382.492
-378.289
-373.949
-369.478
-364.882
-360.168
-355.345
-350.424
-345.41
-340.302
-335.101
-329.809
-324.428
-318.964
-313.42
-307.798
-302.1
-296.332
-290.501
-284.616
-278.682
-272.704
-266.681
-260.6
-254.472
-248.322
-242.177
-236.08
-230.034
-224.006
-217.981
-211.952
-205.919
-199.922
-193.942
-187.87
-181.738
-175.693
-169.863
-164.426
-159.364
-154.365
-149.308
-144.303
-139.16
-133.499
-126.945
-118.968
-109.524
-99.233
-88.37
-76.829
-65.009
-53.631
-43.39
-35.181
-29.286
-25.119
-22.535
-21.875
-22.748
-24.215
-25.436
-25.439
-23.739
-20.634
-15.984
-9.13
-0.25
9.776
20.234
30.362
39.703
48.364
56.098
62.229
66.75
70.225
73.086
75.788
78.598
81.424
84.402
87.914
92.024
96.542
101.324
106.194
111.094
116.143
121.366
126.701
132.149
137.741
143.509
149.511
155.756
162.198
168.808
175.566
182.455
189.478
196.626
203.88
211.222
218.637
226.104
233.607
241.124
248.628
256.095
263.494
270.797
277.976
285.002
291.846
298.474
304.849
310.935
316.697
322.1
327.112
331.702
335.84
339.495
342.644
345.261
347.325
348.818
349.724
350.028
349.721
348.795
347.247
345.078
342.29
338.89
334.888
330.295
325.13
319.411
313.161
306.404
299.17
291.489
283.395
274.923
266.11
256.994
247.617
238.018
228.238
218.321
208.306
198.235
188.147
178.083
168.079
158.171
148.394
138.778
129.354
120.148
111.185
102.485
94.07
85.953
78.15
70.671
63.523
56.713
50.243
44.113
38.321
32.863
27.732
22.919
18.414
14.205
10.281
6.625
3.224
0.062
-2.877
-5.608
-8.147
-10.509
-12.708
-14.759
-16.672
-18.459
-20.13
-21.693
-23.154
-24.517
-25.786
-26.964
-28.049
-29.041
-29.938
-30.735
-31.428
-32.011
-32.478
-32.822
-33.036
-33.113
-33.044
-32.823
-32.442
-31.897
-31.18
-30.289
-29.218
-27.966
-26.533
-24.919
-23.126
-21.16
-19.027
-16.735
-14.296
-11.722
-9.029
-6.234
-3.356
-0.416
2.562
5.554
8.535
11.476
14.352
17.132
19.789
22.293
24.616
26.731
28.61
30.228
31.56
32.584
33.278
33.624
33.606
33.208
32.42
31.233
29.64
27.638
25.228
22.413
19.199
15.596
11.617
7.278
2.599
-2.398
-7.689
-13.243
-19.032
-25.022
-31.178
-37.464
-43.841
-50.271
-56.713
-63.126
-69.472
-75.708
-81.795
-87.695
-93.37
-98.783
-103.9
-108.686
-113.111
-117.146
-120.763
-123.938
-126.648
-128.874
-130.599
-131.809
-132.491
-132.639
-132.246
-131.309
-129.829
-127.808
-125.253
-122.172
-118.575
-114.477
-109.892
-104.838
-99.335
-93.403
-87.064
-80.343
-73.262
-65.847
-58.123
-50.115
-41.851
-33.356
-24.657
-15.779
-6.748
2.41
11.671
21.011
30.404
39.828
49.259
58.674
68.049
77.363
86.592
95.717
104.716
113.571
122.263
130.773
139.082
147.169
155.016
162.601
169.905
176.906
183.586
189.929
195.92
201.545
206.792
211.651
216.108
220.151
223.767
226.949
229.692
232
233.875
235.325
236.36
236.987
237.21
237.032
236.45
235.456
234.043
232.202
229.928
227.228
224.099
220.53
216.492
211.93
206.802
201.077
194.727
187.761
180.197
172.051
163.407
154.383
144.998
135.238
124.987
113.986
102.107
89.343
75.637
61.07
46.075
31.243
17.511
6.208
-1.752
-5.82
-5.269
-0.469
7.518
18.247
30.009
41.938
53.874
62.467
64.98
58.503
40.465
14.135
-16.551
-47.788
-75.161
-98.018
-115.458
-125.69
-128.602
-123.677
-111.249
-93.066
-70.662
-45.936
-21.37
0.987
19.865
34.633
45.41
52.77
57.315
59.915
61.837
64.172
67.596
72.485
78.837
86.475
95.261
104.93
115.06
125.355
135.649
145.856
156.023
166.188
176.329
186.445
196.545
206.593
216.546
226.346
235.913
245.196
254.169
262.813
271.123
279.094
286.719
294
300.942
307.55
313.835
319.808
325.485
330.886
336.03
340.933
345.612
350.082
354.355
358.444
362.357
366.101
369.695
373.154
376.494
379.735
382.882
385.934
388.908
391.821
394.659
397.413
400.073
402.625
405.087
407.49
409.816
412.034
414.22
416.465
418.706
420.942
423.182
425.214
427.579
430.801
434.105
437.249
438.818
437.12
434.003
430.695
429.031
431.536
435.954
440.374
443.484
443.12
440.815
438.119
435.373
433.522
432.009
430.12
427.987
425.518
422.76
419.856
416.714
413.261
409.523
405.511
401.219
396.655
391.83
386.753
381.443
375.924
370.195
364.257
358.12
351.789
345.272
338.577
331.707
324.666
317.461
310.097
302.579
294.91
287.095
279.133
271.028
262.781
254.39
245.857
237.18
228.357
219.386
210.265
200.992
191.562
181.973
172.223
162.308
152.226
141.976
131.555
120.962
110.198
99.263
88.159
76.888
65.453
53.86
42.114
30.221
18.191
6.031
-6.247
-18.633
-31.113
-43.674
-56.299
-68.974
-81.678
-94.395
-107.102
-119.781
-132.407
-144.958
-157.41
-169.74
-181.922
-193.931
-205.742
-217.33
-228.669
-239.736
-250.506
-260.954
-271.058
-280.796
-290.146
-299.088
-307.603
-315.672
-323.279
-330.409
-337.047
-343.179
-348.796
-353.885
-358.439
-362.451
-365.913
-368.823
-371.177
-372.974
-374.215
-374.902
-375.039
-374.631
-373.686
-372.212
-370.219
-367.716
-364.718
-361.236
-357.285
-352.88
-348.036
-342.77
-337.1
-331.042
-324.615
-317.837
-310.727
-303.303
-295.586
-287.593
-279.344
-270.858
-262.155
-253.255
-244.177
-234.943
-225.572
-216.088
-206.509
-196.859
-187.156
-177.421
-167.673
-157.931
-148.214
-138.54
-128.924
-119.386
-109.941
-100.605
-91.394
-82.325
-73.411
-64.666
-56.104
-47.738
-39.579
-31.638
-23.924
-16.448
-9.22
-2.248
4.459
10.895
17.054
22.933
28.53
33.847
38.888
43.661
48.173
52.431
56.447
60.229
63.788
67.133
70.272
73.213
75.965
78.54
80.951
83.21
85.334
87.343
89.257
91.101
92.904
94.692
96.486
98.311
100.193
102.156
104.242
106.484
108.902
111.521
114.36
117.427
120.732
124.252
127.934
131.726
135.568
139.402
143.191
146.875
150.406
153.761
156.892
159.777
162.434
164.845
167.01
168.985
170.812
172.611
174.588
176.884
179.665
183.137
187.382
192.424
198.167
204.287
210.507
216.642
222.403
227.595
232.215
236.442
241.058
247.013
254.785
264.763
276.492
289.124
302.584
315.561
326.86
335.434
337.329
329.555
309.754
275.472
228.738
173.023
111.256
47.34
-15.203
-73.782
-124.519
-163.882
-192.384
-211.198
-222.795
-230.748
-235.424
-237.519
-238.38
-238.622
-240.092
-244.051
-250.367
-258.929
-269.104
-279.824
-290.529
-300.735
-310.047
-318.542
-326.49
-334.155
-341.919
-350.218
-359.253
-369.127
-379.82
-391.083
-402.636
-414.197
-425.507
-436.396
-446.784
-456.634
-465.931
-474.679
-482.849
-490.434
-497.431
-503.818
-509.589
-514.741
-519.299
-523.329
-526.93
-530.209
-533.24
-536.064
-538.7
-541.155
-543.431
-545.525
-547.427
-549.115
-550.578
-551.817
-552.839
-553.653
-554.259
-554.644
-554.791
-554.679
-554.294
-553.626
-552.67
-551.419
-549.873
-548.036
-545.919
-543.537
-540.901
-538.018
-534.894
-531.537
-527.954
-524.154
-520.146
-515.94
-511.547
-506.981
-502.258
-497.397
-492.415
-487.33
-482.161
-476.926
-471.644
-466.333
-461.01
-455.693
-450.397
-445.141
-439.938
-434.805
-429.757
-424.805
-419.963
-415.24
-410.647
-406.189
-401.873
-397.702
-393.68
-389.808
-386.087
-382.516
-379.096
-375.823
-372.696
-369.709
-366.859
-364.137
-361.537
-359.048
-356.661
-354.365
-352.148
-349.998
-347.903
-345.85
-343.825
-341.817
-339.812
-337.797
-335.76
-333.69
-331.573
-329.401
-327.163
-324.852
-322.459
-319.98
-317.408
-314.741
-311.976
-309.112
-306.147
-303.084
-299.922
-296.665
-293.318
-289.884
-286.37
-282.783
-279.132
-275.426
-271.676
-267.894
-264.092
-260.283
-256.483
-252.706
-248.968
-245.285
-241.675
-238.155
-234.743
-231.455
-228.311
-225.325
-222.515
-219.897
-217.484
-215.29
-213.329
-211.61
-210.145
-208.941
-208.007
-207.348
-206.967
-206.869
-207.052
-207.516
-208.255
-209.265
-210.537
-212.06
-213.82
-215.803
-217.991
-220.364
-222.898
-225.571
-228.354
-231.218
-234.132
-237.062
-239.972
-242.825
-245.582
-248.205
-250.653
-252.884
-254.86
-256.538
-257.878
-258.84
-259.382
-259.467
-259.055
-258.109
-256.594
-254.475
-251.721
-248.304
-244.199
-239.384
-233.84
-227.553
-220.511
-212.708
-204.139
-194.805
-184.71
-173.86
-162.269
-149.954
-136.937
-123.246
-108.91
-93.967
-78.456
-62.421
-45.911
-28.976
-11.669
5.953
23.83
41.898
60.092
78.343
96.581
114.733
132.722
150.472
167.906
184.95
201.532
217.579
233.023
247.799
261.846
275.108
287.528
299.048
309.613
319.164
327.652
335.026
341.236
346.242
350.013
352.523
353.765
353.738
352.435
349.855
345.997
340.851
334.427
326.744
317.814
307.672
296.373
283.99
270.632
256.414
241.41
225.687
209.295
192.26
174.632
156.443
137.704
118.47
98.79
78.723
58.376
37.821
17.073
-3.886
-25.141
-46.794
-68.855
-91.304
-114.117
-137.224
-160.585
-184.126
-207.676
-231.105
-254.284
-277.16
-299.82
-322.255
-344.24
-365.373
-385.141
-403.163
-419.422
-433.949
-446.547
-457.116
-465.739
-473.028
-480.003
-487.295
-494.881
-502.227
-508.858
-514.567
-519.255
-522.226
-522.197
-517.994
-508.911
-495.345
-478.102
-457.732
-434.67
-409.701
-384.566
-361.96
-344.835
-335.148
-334.388
-343.902
-364.849
-398.569
-444.441
-499.26
-560.126
-624.699
-691.43
-760.639
-828.883
-889.031
-935.344
-962.375
-970.1
-964.317
-950.151
-932.967
-915.952
-899.133
-882.883
-867.224
-852.521
-840.075
-830.281
-822.889
-816.976
-810.793
-803.269
-794.078
-783.179
-770.915
-757.595
-743.407
-728.756
-714.164
-699.917
-686.082
-672.503
-658.833
-644.767
-630.057
-614.514
-598.007
-580.451
-561.799
-542.034
-521.183
-499.29
-476.402
-452.552
-427.764
-402.072
-375.528
-348.233
-320.303
-291.857
-263.025
-233.897
-204.535
-175.002
-145.343
-115.598
-85.802
-55.978
-26.135
3.701
33.493
63.21
92.817
122.296
151.634
180.819
209.842
238.688
267.342
295.789
324.011
351.988
379.699
407.124
434.236
461.02
487.461
513.548
539.272
564.625
589.597
614.182
638.375
662.169
685.559
708.539
731.103
753.247
774.966
796.258
817.123
837.559
857.567
877.148
896.304
915.037
933.352
951.253
968.743
985.828
1002.512
1018.802
1034.703
1050.223
1065.367
1080.143
1094.557
1108.616
1122.326
1135.694
1148.725
1161.424
1173.798
1185.851
1197.588
1209.013
1220.134
1230.953
1241.477
1251.709
1261.655
1271.318
1280.704
1289.814
1298.653
1307.224
1315.529
1323.57
1331.349
1338.867
1346.125
1353.122
1359.858
1366.332
1372.544
1378.492
1384.174
1389.589
1394.735
1399.61
1404.212
1408.538
1412.586
1416.352
1419.832
1423.022
1425.918
1428.514
1430.807
1432.79
1434.456
1435.8
1436.815
1437.492
1437.824
1437.799
1437.408
1436.64
1435.483
1433.925
1431.954
1429.558
1426.724
1423.441
1419.698
1415.483
1410.783
1405.587
1399.884
1393.659
1386.901
1379.599
1371.742
1363.32
1354.324
1344.749
1334.589
1323.842
1312.505
1300.581
1288.073
1274.984
1261.321
1247.094
1232.314
1216.996
1201.159
1184.824
1168.015
1150.761
1133.095
1115.052
1096.667
1077.98
1059.029
1039.854
1020.497
1000.998
981.398
961.742
942.075
922.448
902.917
883.538
864.372
845.477
826.912
808.73
790.982
773.714
756.964
740.759
725.133
710.117
695.748
682.069
669.112
656.895
645.426
634.704
624.702
615.381
606.687
598.558
590.946
583.812
577.139
570.934
565.2
559.945
555.149
550.767
546.754
543.07
539.679
536.543
533.669
531.097
528.893
527.152
525.932
525.256
525.098
525.391
526.032
526.88
527.822
528.767
529.625
530.306
530.719
530.777
530.325
529.156
527.005
523.554
518.536
511.74
503.016
492.263
479.458
464.669
447.967
429.442
409.203
387.37
364.081
339.498
313.865
287.497
260.801
234.267
208.335
183.391
159.786
137.832
117.76
99.703
83.75
69.937
58.276
48.753
41.322
35.898
32.316
30.355
29.703
29.964
30.776
31.814
32.758
33.308
33.208
32.257
30.301
27.234
22.966
17.426
10.577
2.414
-7.03
-17.71
-29.544
-42.415
-56.207
-70.804
-86.083
-101.891
-118.078
-134.538
-151.127
-167.694
-184.193
-200.609
-217.051
-233.856
-251.298
-269.382
-288.095
-307.355
-326.809
-346.247
-365.227
-382.598
-397.455
-409.54
-418.823
-426.427
-433.826
-441.172
-449.571
-459.739
-472.211
-489.827
-513.239
-543.873
-583.833
-631.211
-685.531
-742.573
-793.848
-834.783
-860.347
-869.9
-869.173
-861.824
-852.066
-842.846
-833.484
-824.567
-816.761
-810.469
-807.128
-807.157
-810.041
-814.977
-820.515
-825.556
-829.707
-832.774
-834.802
-835.992
-836.494
-836.56
-836.584
-836.725
-836.909
-837.042
-836.968
-836.569
-835.838
-834.714
-833.101
-830.963
-828.278
-825.05
-821.332
-817.136
-812.454
-807.316
-801.759
-795.865
-789.759
-783.528
-777.226
-770.895
-764.556
-758.223
-751.918
-745.639
-739.375
-733.124
-726.892
-720.693
-714.555
-708.494
-702.522
-696.642
-690.849
-685.143
-679.53
-674.014
-668.602
-663.307
-658.138
-653.112
-648.253
-643.576
-639.094
-634.814
-630.739
-626.873
-623.217
-619.77
-616.53
-613.493
-610.657
-608.018
-605.574
-603.322
-601.254
-599.364
-597.645
-596.087
-594.681
-593.414
-592.275
-591.25
-590.325
-589.487
-588.723
-588.016
-587.354
-586.721
-586.103
-585.486
-584.855
-584.198
-583.499
-582.746
-581.929
-581.036
-580.059
-578.99
-577.822
-576.551
-575.173
-573.685
-572.085
-570.371
-568.543
-566.601
-564.547
-562.384
-560.113
-557.74
-555.27
-552.709
-550.063
-547.341
-544.549
-541.697
-538.793
-535.846
-532.865
-529.86
-526.839
-523.812
-520.789
-517.777
-514.786
-511.822
-508.894
-506.009
-503.171
-500.387
-497.661
-494.997
-492.397
-489.865
-487.401
-485.007
-482.682
-480.426
-478.237
-476.112
-474.048
-472.041
-470.087
-468.179
-466.31
-464.474
-462.664
-460.869
-459.082
-457.293
-455.491
-453.666
-451.808
-449.905
-447.945
-445.918
-443.811
-441.614
-439.313
-436.897
-434.355
-431.675
-428.846
-425.857
-422.697
-419.356
-415.825
-412.094
-408.155
-404.001
-399.624
-395.018
-390.177
-385.099
-379.778
-374.213
-368.402
-362.345
-356.043
-349.498
-342.712
-335.688
-328.432
-320.948
-313.242
-305.321
-297.192
-288.865
-280.347
-271.649
-262.783
-253.758
-244.587
-235.283
-225.857
-216.323
-206.693
-196.981
-187.199
-177.361
-167.478
-157.564
-147.632
-137.691
-127.754
-117.83
-107.929
-98.06
-88.23
-78.444
-68.71
-59.033
-49.417
-39.868
-30.391
-20.989
-11.669
-2.434
6.711
15.762
24.717
33.574
42.329
50.982
59.53
67.971
76.303
84.521
92.623
100.603
108.457
116.181
123.769
131.217
138.519
145.666
152.653
159.472
166.112
172.561
178.806
184.835
190.638
196.203
201.521
206.579
211.369
215.882
220.115
224.066
227.728
231.094
234.155
236.905
239.34
241.453
243.237
244.679
245.766
246.493
246.861
246.881
246.566
245.932
244.993
243.774
242.295
240.589
238.686
236.609
234.39
232.061
229.661
227.264
224.948
222.773
220.805
219.062
217.503
216.101
214.804
213.557
212.376
211.218
209.948
208.619
207.372
206.346
205.766
205.584
205.454
205.276
205.16
204.994
204.595
203.622
201.454
198.06
194.001
189.558
184.81
179.959
175.285
171.602
170.422
172.781
178.948
189.138
203.486
222.031
244.633
270.126
296.109
320.027
339.837
353.859
360.718
359.01
347.559
326.472
297.32
262.483
224.508
185.721
148.405
115.292
88.943
70.804
61.178
59.315
63.803
73.167
85.533
98.305
109.09
116.252
118.802
116.63
110.172
99.964
87.021
72.88
58.809
45.662
33.968
23.779
14.997
7.563
1.186
-4.586
-10.019
-15.22
-20.148
-24.614
-28.493
-31.743
-34.306
-36.126
-37.195
-37.538
-37.222
-36.34
-34.945
-33.067
-30.717
-27.903
-24.652
-20.999
-16.981
-12.636
-7.999
-3.1
2.029
7.361
12.877
18.556
24.384
30.343
36.405
42.539
48.71
54.877
61.006
67.063
73.012
78.823
84.47
89.924
95.163
100.167
104.914
109.386
113.568
117.445
121.005
124.238
127.138
129.699
131.917
133.793
135.325
136.516
137.371
137.894
138.093
137.975
137.549
136.827
135.817
134.532
132.985
131.189
129.158
126.908
124.453
121.811
118.998
116.03
112.923
109.693
106.355
102.922
99.409
95.83
92.195
88.518
84.809
81.079
77.337
73.592
69.853
66.125
62.415
58.727
55.067
51.438
47.842
44.282
40.761
37.28
33.84
30.443
27.09
23.781
20.518
17.3
14.129
11.004
7.928
4.9
1.922
-1.005
-3.879
-6.698
-9.458
-12.158
-14.793
-17.359
-19.852
-22.268
-24.6
-26.842
-28.989
-31.032
-32.966
-34.781
-36.47
-38.025
-39.438
-40.702
-41.808
-42.75
-43.521
-44.115
-44.526
-44.75
-44.784
-44.625
-44.27
-43.721
-42.977
-42.04
-40.912
-39.6
-38.107
-36.441
-34.61
-32.624
-30.494
-28.23
-25.848
-23.361
-20.784
-18.136
-15.434
-12.696
-9.943
-7.194
-4.471
-1.794
0.814
3.332
5.74
8.015
10.139
12.09
13.851
15.404
16.733
17.822
18.658
19.229
19.524
19.535
19.256
18.679
17.804
16.627
15.15
13.375
11.306
8.949
6.311
3.403
0.235
-3.181
-6.829
-10.695
-14.761
-19.011
-23.423
-27.98
-32.66
-37.442
-42.307
-47.232
-52.196
-57.179
-62.162
-67.125
-72.049
-76.918
-81.716
-86.428
-91.041
-95.542
-99.922
-104.172
-108.284
-112.252
-116.073
-119.744
-123.263
-126.63
-129.847
-132.916
-135.841
-138.626
-141.276
-143.798
-146.2
-148.49
-150.675
-152.765
-154.77
-156.699
-158.561
-160.364
-162.115
-163.823
-165.494
-167.134
-168.748
-170.34
-171.913
-173.468
-175.007
-176.528
-178.029
-179.501
-180.94
-182.337
-183.687
-184.982
-186.218
-187.386
-188.478
-189.485
-190.397
-191.203
-191.891
-192.445
-192.847
-193.085
-193.147
-193.027
-192.722
-192.22
-191.508
-190.57
-189.385
-187.942
-186.229
-184.237
-181.962
-179.402
-176.567
-173.477
-170.154
-166.623
-162.903
-158.994
-154.91
-150.68
-146.348
-142.005
-137.745
-133.622
-129.68
-125.933
-122.36
-119.019
-115.941
-113.045
-110.329
-107.851
-105.754
-104.438
-104.278
-105.278
-107.315
-110.271
-113.793
-117.406
-120.396
-121.654
-120.162
-116.075
-110.584
-104.066
-96.813
-88.384
-77.015
-64.652
-55.525
-53.239
-62.157
-81.701
-106.33
-131.286
-151.586
-165.166
-174.025
-179.352
-182.218
-183.26
-181.944
-178.909
-175.226
-171.581
-168.666
-166.81
-165.929
-166.04
-167.081
-168.431
-169.597
-170.375
-170.591
-170.262
-169.452
-168.011
-165.802
-162.982
-159.673
-155.914
-151.779
-147.2
-142.119
-136.603
-130.714
-124.466
-117.879
-110.955
-103.692
-96.144
-88.365
-80.393
-72.277
-64.045
-55.729
-47.37
-39.007
-30.674
-22.402
-14.212
-6.122
1.847
9.676
17.346
24.839
32.138
39.232
46.11
52.763
59.179
65.35
71.27
76.935
82.342
87.49
92.379
97.008
101.378
105.491
109.351
112.961
116.325
119.446
122.328
124.974
127.389
129.576
131.537
133.274
134.789
136.083
137.156
138.008
138.638
139.046
139.228
139.185
138.913
138.412
137.679
136.712
135.51
134.071
132.395
130.479
128.325
125.932
123.3
120.431
117.326
113.99
110.424
106.634
102.625
98.403
93.975
89.351
84.539
79.549
74.393
69.083
63.632
58.053
52.361
46.57
40.697
34.757
28.765
22.737
16.688
10.635
4.591
-1.43
-7.413
-13.345
-19.216
-25.013
-30.725
-36.344
-41.862
-47.269
-52.561
-57.731
-62.775
-67.69
-72.472
-77.121
-81.635
-86.014
-90.258
-94.369
-98.348
-102.196
-105.918
-109.514
-112.988
-116.342
-119.579
-122.701
-125.71
-128.607
-131.391
-134.063
-136.622
-139.064
-141.388
-143.587
-145.658
-147.593
-149.385
-151.025
-152.503
-153.81
-154.933
-155.86
-156.577
-157.072
-157.331
-157.337
-157.078
-156.537
-155.701
-154.554
-153.083
-151.273
-149.112
-146.587
-143.687
-140.402
-136.723
-132.642
-128.154
-123.254
-117.941
-112.214
-106.076
-99.531
-92.585
-85.247
-77.528
-69.441
-61.003
-52.231
-43.145
-33.768
-24.123
-14.237
-4.138
6.145
16.579
27.133
37.772
48.461
59.165
69.847
80.469
90.996
101.388
111.609
121.621
131.389
140.876
150.049
158.872
167.315
175.347
182.94
190.068
196.705
202.831
208.425
213.472
217.957
221.867
225.195
227.934
230.082
231.637
232.603
232.985
232.792
232.034
230.725
228.883
226.526
223.676
220.356
216.593
212.415
207.852
202.935
197.698
192.176
186.404
180.419
174.258
167.959
161.56
155.097
148.609
142.131
135.701
129.352
123.119
117.034
111.129
105.433
99.975
94.779
89.871
85.271
81
77.073
73.505
70.308
67.491
65.061
63.021
61.372
60.113
59.239
58.744
58.618
58.85
59.426
60.33
61.543
63.047
64.822
66.844
69.093
71.543
74.173
76.957
79.872
82.894
85.998
89.163
92.364
95.581
98.794
101.984
105.133
108.227
111.25
114.193
117.045
119.8
122.453
125.001
127.445
129.788
132.035
134.195
136.277
138.296
140.266
142.204
144.13
146.064
148.027
150.042
152.133
154.323
156.637
159.099
161.733
164.563
167.611
170.9
174.449
178.28
182.408
186.85
191.619
196.726
202.179
207.985
214.147
220.665
227.536
234.753
242.309
250.189
258.378
266.856
275.602
284.589
293.789
303.171
312.702
322.347
332.067
341.826
351.582
361.296
370.925
380.43
389.767
398.896
407.776
416.367
424.631
432.531
440.03
447.097
453.699
459.808
465.397
470.444
474.928
478.83
482.136
484.836
486.921
488.387
489.234
489.463
489.08
488.096
486.521
484.372
481.665
478.42
474.661
470.41
465.694
460.54
454.975
449.029
442.731
436.112
429.201
422.028
414.624
407.016
399.232
391.3
383.245
375.092
366.863
358.582
350.267
341.937
333.608
325.297
317.016
308.775
300.585
292.452
284.383
276.381
268.449
260.589
252.801
245.084
237.436
229.856
222.34
214.885
207.49
200.149
192.862
185.625
178.436
171.294
164.2
157.153
150.156
143.211
136.322
129.493
122.731
116.043
109.437
102.921
96.506
90.203
84.025
77.983
72.092
66.366
60.821
55.471
50.332
45.419
40.749
36.336
32.195
28.34
24.786
21.545
18.629
16.048
13.813
11.932
10.411
9.256
8.471
8.056
8.014
8.342
9.037
10.096
11.513
13.279
15.386
17.824
20.581
23.642
26.994
30.621
34.505
38.628
42.97
47.513
52.235
57.115
62.131
67.26
72.481
77.769
83.102
88.457
93.811
99.14
104.422
109.634
114.754
119.76
124.632
129.349
133.889
138.232
142.356
146.242
149.871
153.226
156.284
159.026
161.439
163.509
165.223
166.571
167.531
168.078
168.206
167.908
167.151
165.908
164.156
161.865
159.039
155.699
151.819
147.363
142.4
137.018
131.156
124.817
118.016
110.554
102.965
95.768
88.227
80.126
70.113
56.572
41.315
25.554
11.094
0.404
-8.665
-17.932
-28.633
-42.825
-58.991
-75.593
-92.264
-108.05
-123.452
-139.122
-154.891
-170.811
-186.797
-202.672
-218.486
-234.274
-249.971
-265.531
-280.924
-296.107
-311.036
-325.669
-339.957
-353.847
-367.312
-380.325
-392.852
-404.865
-416.339
-427.246
-437.568
-447.287
-456.387
-464.853
-472.676
-479.848
-486.366
-492.228
-497.435
-501.992
-505.905
-509.182
-511.835
-513.877
-515.325
-516.198
-516.517
-516.304
-515.581
-514.371
-512.696
-510.581
-508.052
-505.134
-501.856
-498.245
-494.332
-490.149
-485.729
-481.105
-476.305
-471.357
-466.286
-461.122
-455.897
-450.648
-445.412
-440.223
-435.112
-430.107
-425.23
-420.498
-415.922
-411.503
-407.237
-403.112
-399.124
-395.277
-391.564
-387.967
-384.442
-380.917
-377.329
-373.631
-369.796
-365.822
-361.716
-357.471
-353.115
-348.727
-344.317
-339.829
-335.127
-329.967
-324.157
-317.648
-310.503
-302.833
-295.043
-287.809
-281.885
-278.178
-277.511
-280.347
-286.865
-297.066
-310.178
-324.739
-339.311
-352.307
-362.116
-367.528
-367.385
-360.54
-347.117
-328.314
-305.22
-279.075
-251.29
-223.211
-196.887
-174.891
-158.533
-148.109
-144.036
-146.651
-156.144
-172.238
-193.271
-216.56
-240.018
-262.064
-280.94
-294.736
-301.553
-300.274
-291.172
-275.59
-255.031
-230.969
-205.137
-179.661
-156.654
-137.538
-122.887
-112.536
-105.933
-102.459
-101.246
-101.066
-100.808
-99.747
-97.481
-93.972
-89.365
-83.774
-77.446
-70.775
-64.037
-57.379
-50.875
-44.471
-38.125
-31.861
-25.672
-19.547
-13.516
-7.619
-1.914
3.518
8.627
13.392
17.796
21.837
25.511
28.813
31.744
34.313
36.529
38.405
39.956
41.201
42.162
42.863
43.33
43.584
43.648
43.54
43.279
42.884
42.373
41.769
41.095
40.374
39.628
38.882
38.156
37.473
36.851
36.309
35.864
35.532
35.329
35.266
35.357
35.612
36.038
36.642
37.427
38.396
39.548
40.881
42.392
44.074
45.921
47.925
50.074
52.358
54.763
57.275
59.878
62.557
65.293
68.069
70.866
73.665
76.447
79.192
81.883
84.499
87.024
89.439
91.729
93.876
95.867
97.688
99.327
100.774
102.019
103.056
103.878
104.481
104.864
105.026
104.967
104.692
104.204
103.51
102.617
101.535
100.275
98.85
97.272
95.557
93.721
91.781
89.753
87.658
85.512
83.337
81.15
78.973
76.823
74.721
72.686
70.735
68.888
67.16
65.569
64.129
62.854
61.757
60.849
60.14
59.639
59.351
59.283
59.437
59.816
60.42
61.247
62.295
63.56
65.035
66.713
68.586
70.645
72.879
75.278
77.828
80.519
83.336
86.268
89.3
92.42
95.614
98.869
102.174
105.515
108.882
112.263
115.649
119.031
122.401
125.752
129.079
132.378
135.645
138.88
142.081
145.251
148.391
151.506
154.599
157.677
160.747
163.816
166.892
169.985
173.103
176.256
179.451
182.7
186.009
189.386
192.84
196.376
200
203.717
207.53
211.441
215.452
219.561
223.768
228.07
232.461
236.935
241.485
246.101
250.774
255.49
260.236
264.997
269.758
274.501
279.207
283.858
288.434
292.916
297.282
301.512
305.588
309.49
313.199
316.697
319.968
322.995
325.765
328.267
330.49
332.426
334.069
335.416
336.465
337.216
337.673
337.839
337.719
337.322
336.659
335.747
334.604
333.249
331.7
329.981
328.114
326.124
324.033
321.864
319.638
317.377
315.105
312.849
310.639
308.498
306.441
304.48
302.621
300.87
299.24
297.737
296.369
295.143
294.069
293.162
292.441
291.922
291.615
291.518
291.617
291.914
292.426
293.191
294.272
295.696
297.455
299.522
301.843
304.382
307.146
310.074
313.042
316.013
318.992
322.125
325.727
329.871
334.34
338.886
343.224
346.994
349.881
351.262
350.125
345.986
338.925
329.267
317.664
304.795
291.178
277.749
265.985
256.923
251.169
249.084
250.496
255.192
263.113
273.868
286.518
299.965
312.9
323.858
331.711
335.467
333.999
326.12
311.068
288.909
260.492
227.384
191.302
153.74
116.566
82.431
53.765
32.087
18.238
11.999
12.672
19.915
32.582
48.13
64.036
78.09
88.151
93.192
92.629
85.395
71.428
52.016
28.534
2.745
-23.217
-48.174
-71.188
-90.918
-106.817
-119.062
-127.89
-134.153
-139.053
-143.167
-146.965
-151.067
-155.682
-160.895
-166.794
-173.096
-179.391
-185.535
-191.431
-197.016
-202.362
-207.473
-212.317
-216.959
-221.462
-225.846
-230.117
-234.238
-238.152
-241.832
-245.271
-248.473
-251.452
-254.217
-256.777
-259.143
-261.334
-263.373
-265.285
-267.09
-268.813
-270.475
-272.102
-273.722
-275.362
-277.043
-278.786
-280.605
-282.512
-284.519
-286.64
-288.886
-291.267
-293.792
-296.466
-299.292
-302.274
-305.411
-308.698
-312.128
-315.693
-319.38
-323.174
-327.059
-331.017
-335.024
-339.057
-343.089
-347.09
-351.029
-354.874
-358.59
-362.141
-365.491
-368.601
-371.436
-373.956
-376.123
-377.901
-379.253
-380.141
-380.532
-380.391
-379.687
-378.391
-376.473
-373.911
-370.681
-366.765
-362.147
-356.816
-350.764
-343.987
-336.483
-328.257
-319.316
-309.672
-299.341
-288.341
-276.696
-264.432
-251.58
-238.174
-224.248
-209.843
-195
-179.762
-164.176
-148.288
-132.148
-115.805
-99.311
-82.716
-66.073
-49.433
-32.849
-16.371
-0.049
16.067
31.93
47.493
62.713
77.548
91.957
105.904
119.353
132.273
144.632
156.404
167.565
178.093
187.968
197.173
205.695
213.522
220.643
227.052
232.742
237.711
241.956
245.477
248.276
250.355
251.719
252.374
252.326
251.585
250.159
248.06
245.299
241.889
237.842
233.174
227.899
222.033
215.591
208.593
201.055
192.998
184.441
175.406
165.915
155.994
145.666
134.958
123.897
112.512
100.832
88.889
76.716
64.346
51.816
39.163
26.424
13.639
0.847
-11.91
-24.593
-37.161
-49.573
-61.788
-73.766
-85.467
-96.851
-107.878
-118.511
-128.713
-138.449
-147.687
-156.396
-164.549
-172.121
-179.091
-185.442
-191.161
-196.235
-200.658
-204.425
-207.535
-209.991
-211.802
-212.978
-213.534
-213.49
-212.869
-211.699
-210.009
-207.832
-205.203
-202.158
-198.733
-194.969
-190.906
-186.585
-182.051
-177.346
-172.516
-167.608
-162.665
-157.73
-152.844
-148.046
-143.373
-138.858
-134.529
-130.41
-126.523
-122.89
-119.528
-116.452
-113.672
-111.198
-109.038
-107.203
-105.696
-104.512
-103.645
-103.08
-102.799
-102.781
-103
-103.427
-104.031
-104.786
-105.668
-106.662
-107.749
-108.903
-110.085
-111.24
-112.317
-113.281
-114.09
-114.713
-115.14
-115.378
-115.467
-115.485
-115.491
-115.52
-115.596
-115.707
-115.83
-115.963
-116.101
-116.264
-116.507
-116.873
-117.4
-118.116
-118.969
-119.861
-120.646
-121.073
-120.895
-120.009
-118.425
-116.302
-113.96
-111.685
-109.663
-108.052
-106.93
-106.008
-104.697
-102.252
-97.809
-90.735
-80.862
-68.392
-53.717
-37.925
-22.748
-10.005
-1.672
0.451
-4.831
-18.177
-39.958
-69.505
-105.067
-144.626
-185.728
-225.612
-261.713
-291.779
-313.813
-326.853
-331.086
-327.122
-316.092
-299.726
-280.027
-258.904
-238.115
-218.755
-201.174
-185.472
-171.541
-158.907
-146.836
-134.733
-122.134
-108.875
-95.174
-81.295
-67.509
-54.2
-41.787
-30.506
-20.504
-11.826
-4.331
2.118
7.681
12.599
17.055
21.154
24.98
28.596
32.03
35.333
38.532
41.609
44.564
47.384
50.052
52.559
54.87
56.937
58.705
60.11
61.12
61.735
61.961
61.81
61.304
60.465
59.331
57.957
56.385
54.649
52.786
50.831
48.825
46.818
44.855
42.98
41.232
39.643
38.242
37.049
36.083
35.355
34.869
34.627
34.627
34.872
35.357
36.081
37.036
38.213
39.599
41.181
42.94
44.855
46.9
49.051
51.278
53.555
55.853
58.143
60.394
62.579
64.668
66.632
68.443
70.071
71.491
72.675
73.599
74.24
74.577
74.591
74.265
73.586
72.54
71.117
69.309
67.11
64.516
61.525
58.137
54.355
50.182
45.624
40.69
35.39
29.735
23.74
17.419
10.787
3.862
-3.339
-10.798
-18.496
-26.413
-34.532
-42.831
-51.291
-59.892
-68.614
-77.437
-86.34
-95.304
-104.309
-113.337
-122.368
-131.383
-140.365
-149.295
-158.157
-166.932
-175.604
-184.156
-192.573
-200.838
-208.936
-216.851
-224.569
-232.075
-239.355
-246.394
-253.179
-259.697
-265.932
-271.873
-277.505
-282.816
-287.794
-292.426
-296.701
-300.608
-304.137
-307.278
-310.025
-312.369
-314.304
-315.826
-316.932
-317.619
-317.886
-317.736
-317.169
-316.191
-314.807
-313.025
-310.853
-308.304
-305.39
-302.124
-298.524
-294.606
-290.389
-285.895
-281.144
-276.161
-270.97
-265.596
-260.068
-254.413
-248.658
-242.834
-236.969
-231.093
-225.234
-219.421
-213.682
-208.044
-202.533
-197.173
-191.988
-186.999
-182.226
-177.687
-173.397
-169.369
-165.615
-162.143
-158.959
-156.066
-153.467
-151.159
-149.14
-147.402
-145.939
-144.739
-143.79
-143.078
-142.585
-142.293
-142.183
-142.232
-142.418
-142.717
-143.105
-143.558
-144.049
-144.556
-145.052
-145.514
-145.917
-146.241
-146.463
-146.564
-146.526
-146.333
-145.971
-145.428
-144.695
-143.766
-142.635
-141.299
-139.758
-138.013
-136.069
-133.931
-131.609
-129.112
-126.454
-123.65
-120.717
-117.671
-114.533
-111.32
-108.053
-104.754
-101.444
-98.149
-94.893
-91.702
-88.599
-85.609
-82.753
-80.049
-77.514
-75.162
-73.002
-71.041
-69.287
-67.748
-66.425
-65.319
-64.422
-63.718
-63.188
-62.809
-62.559
-62.415
-62.359
-62.369
-62.427
-62.519
-62.631
-62.758
-62.884
-62.984
-63.041
-63.042
-62.998
-62.95
-62.931
-62.956
-63.025
-63.106
-63.158
-63.166
-63.082
-62.815
-62.353
-61.753
-61.163
-60.849
-61.021
-61.739
-62.967
-64.626
-66.315
-67.327
-66.832
-63.813
-57.398
-47.144
-32.929
-14.79
6.48
29.291
51.936
72.446
88.933
100.253
105.685
104.582
97.417
85.909
71.903
57.69
45.728
37.518
34.252
37.289
46.843
61.929
81.405
103.464
125.959
147.646
167.439
183.998
196.803
205.995
211.842
215.26
217.441
218.973
220.355
222.199
224.716
227.989
232.066
236.63
241.266
245.816
250.173
254.265
258.144
261.799
265.196
268.393
271.447
274.369
277.155
279.757
282.106
284.168
285.928
287.375
288.511
289.332
289.832
290.011
289.875
289.435
288.705
287.694
286.417
284.887
283.123
281.149
278.989
276.662
274.188
271.587
268.873
266.07
263.201
260.291
257.366
254.454
251.581
248.777
246.072
243.494
241.071
238.832
236.803
235.009
233.477
232.229
231.289
230.676
230.407
230.498
230.96
231.804
233.036
234.659
236.675
239.08
241.869
245.033
248.562
252.439
256.648
261.168
265.974
271.039
276.335
281.829
287.485
293.268
299.137
305.052
310.97
316.848
322.64
328.302
333.789
339.055
344.057
348.751
353.096
357.051
360.579
363.644
366.212
368.255
369.744
370.656
370.971
370.671
369.744
368.181
365.975
363.126
359.635
355.508
350.755
345.391
339.43
332.896
325.812
318.205
310.106
301.55
292.573
283.213
273.513
263.514
253.263
242.804
232.184
221.451
210.653
199.837
189.049
178.336
167.744
157.315
147.094
137.119
127.429
118.061
109.049
100.423
92.213
84.444
77.14
70.32
64.002
58.199
52.923
48.182
43.98
40.319
37.198
34.61
32.55
31.004
29.961
29.403
29.31
29.662
30.433
31.598
33.128
34.993
37.161
39.599
42.272
45.144
48.179
51.34
54.589
57.887
61.198
64.482
67.702
70.821
73.801
76.608
79.205
81.56
83.639
85.412
86.849
87.924
88.612
88.89
88.739
88.141
87.082
85.55
83.537
81.038
78.05
74.575
70.616
66.181
61.282
55.932
50.149
43.953
37.368
30.421
23.141
15.559
7.712
-0.365
-8.632
-17.049
-25.573
-34.159
-42.764
-51.34
-59.842
-68.224
-76.44
-84.444
-92.194
-99.646
-106.759
-113.494
-119.816
-125.69
-131.084
-135.971
-140.326
-144.127
-147.357
-150.003
-152.054
-153.505
-154.354
-154.605
-154.264
-153.342
-151.854
-149.821
-147.263
-144.209
-140.69
-136.737
-132.389
-127.685
-122.666
-117.376
-111.86
-106.164
-100.335
-94.42
-88.466
-82.518
-76.623
-70.824
-65.163
-59.68
-54.415
-49.403
-44.677
-40.267
-36.199
-32.499
-29.185
-26.275
-23.782
-21.714
-20.077
-18.873
-18.1
-17.752
-17.82
-18.291
-19.147
-20.371
-21.938
-23.824
-26
-28.438
-31.106
-33.971
-37.001
-40.162
-43.419
-46.74
-50.091
-53.44
-56.756
-60.009
-63.169
-66.21
-69.107
-71.837
-74.378
-76.71
-78.817
-80.685
-82.299
-83.65
-84.73
-85.532
-86.052
-86.29
-86.246
-85.922
-85.325
-84.462
-83.341
-81.974
-80.374
-78.554
-76.529
-74.315
-71.927
-69.383
-66.7
-63.893
-60.98
-57.976
-54.898
-51.761
-48.579
-45.367
-42.137
-38.904
-35.678
-32.471
-29.295
-26.16
-23.076
-20.053
-17.101
-14.229
-11.446
-8.762
-6.184
-3.721
-1.381
0.83
2.904
4.834
6.614
8.237
9.698
10.988
12.102
13.032
13.773
14.316
14.653
14.779
14.684
14.36
13.8
12.996
11.938
10.62
9.033
7.17
5.024
2.59
-0.137
-3.162
-6.486
-10.112
-14.039
-18.266
-22.791
-27.609
-32.717
-38.107
-43.772
-49.703
-55.888
-62.317
-68.975
-75.848
-82.92
-90.172
-97.586
-105.142
-112.818
-120.592
-128.439
-136.334
-144.252
-152.165
-160.047
-167.869
-175.602
-183.218
-190.688
-197.984
-205.077
-211.941
-218.549
-224.874
-230.894
-236.583
-241.919
-246.881
-251.45
-255.607
-259.336
-262.621
-265.45
-267.811
-269.695
-271.094
-272.004
-272.421
-272.343
-271.771
-270.71
-269.162
-267.137
-264.643
-261.693
-258.298
-254.475
-250.241
-245.614
-240.615
-235.264
-229.585
-223.6
-217.334
-210.812
-204.058
-197.099
-189.96
-182.668
-175.249
-167.728
-160.13
-152.481
-144.805
-137.126
-129.465
-121.844
-114.284
-106.803
-99.419
-92.149
-85.007
-78.005
-71.156
-64.468
-57.95
-51.608
-45.445
-39.466
-33.671
-28.061
-22.634
-17.389
-12.323
-7.432
-2.711
1.845
6.242
10.484
14.58
18.534
22.354
26.045
29.613
33.065
36.404
39.635
42.761
45.786
48.711
51.537
54.263
56.888
59.409
61.823
64.125
66.308
68.364
70.287
72.066
73.692
75.155
76.444
77.548
78.458
79.163
79.653
79.919
79.952
79.745
79.292
78.586
77.624
76.404
74.923
73.184
71.187
68.939
66.444
63.711
60.752
57.578
54.205
50.65
46.932
43.073
39.097
35.029
30.899
26.734
22.566
18.428
14.352
10.374
6.528
2.848
-0.629
-3.871
-6.842
-9.51
-11.843
-13.812
-15.388
-16.545
-17.257
-17.503
-17.262
-16.516
-15.251
-13.454
-11.116
-8.231
-4.796
-0.812
3.718
8.785
14.38
20.489
27.094
34.176
41.71
49.671
58.03
66.753
75.807
85.154
94.756
104.57
114.557
124.672
134.874
145.119
155.364
165.569
175.692
185.695
195.537
205.18
214.587
223.724
232.557
241.056
249.189
256.928
264.249
271.13
277.559
283.518
288.989
293.966
298.453
302.458
305.99
309.053
311.635
313.745
315.417
316.654
317.44
317.768
317.63
317.052
316.119
314.876
313.299
311.472
309.62
307.822
306.045
304.344
302.542
301.047
301.135
302.62
304.388
304.633
299.866
290.225
279.296
270.621
269.216
275.556
284.91
293.614
297.762
296.592
293.677
291.229
290.702
292.56
295.308
298.228
301.33
304.503
307.916
311.603
315.359
319.152
323.055
327.068
331.167
335.304
339.437
343.588
347.809
352.15
356.668
361.414
366.449
371.878
377.774
384.139
390.946
398.095
405.423
412.804
420.139
427.336
434.351
441.138
447.579
453.511
458.824
463.457
467.479
471.076
474.235
476.773
478.538
479.432
479.359
478.203
475.433
470.078
461.73
450.625
437.357
422.933
408.256
393.944
381.126
371.479
365.916
364.562
366.839
371.289
376.742
382.581
387.88
391.466
392.684
391.279
387.614
382.81
377.618
372.334
367.312
362.831
359.052
356.128
353.91
351.94
349.99
347.996
345.931
343.88
341.866
339.835
337.798
335.797
333.821
331.85
329.837
327.701
325.398
322.9
320.177
317.216
313.987
310.452
306.578
302.325
297.659
292.558
287.003
280.982
274.493
267.531
260.093
252.188
243.815
234.976
225.67
215.892
205.641
194.926
183.755
172.145
160.113
147.679
134.867
121.704
108.22
94.445
80.414
66.16
51.721
37.137
22.45
7.703
-7.06
-21.791
-36.446
-50.978
-65.339
-79.484
-93.368
-106.946
-120.177
-133.02
-145.437
-157.391
-168.849
-179.78
-190.156
-199.952
-209.143
-217.713
-225.646
-232.93
-239.558
-245.527
-250.837
-255.493
-259.504
-262.883
-265.645
-267.81
-269.402
-270.447
-270.976
-271.023
-270.622
-269.813
-268.637
-267.136
-265.355
-263.338
-261.132
-258.784
-256.338
-253.841
-251.337
-248.869
-246.478
-244.204
-242.083
-240.152
-238.44
-236.977
-235.789
-234.898
-234.323
-234.078
-234.175
-234.622
-235.423
-236.578
-238.083
-239.93
-242.108
-244.603
-247.397
-250.467
-253.791
-257.34
-261.084
-264.993
-269.032
-273.165
-277.357
-281.571
-285.768
-289.913
-293.968
-297.898
-301.668
-305.246
-308.601
-311.705
-314.531
-317.056
-319.258
-321.119
-322.626
-323.765
-324.53
-324.914
-324.917
-324.541
-323.79
-322.674
-321.205
-319.397
-317.269
-314.842
-312.139
-309.186
-306.014
-302.651
-299.131
-295.487
-291.753
-287.965
-284.159
-280.369
-276.629
-272.974
-269.436
-266.045
-262.832
-259.825
-257.048
-254.526
-252.279
-250.325
-248.679
-247.354
-246.358
-245.698
-245.376
-245.392
-245.743
-246.424
-247.426
-248.738
-250.345
-252.231
-254.376
-256.757
-259.352
-262.132
-265.072
-268.142
-271.313
-274.554
-277.838
-281.133
-284.411
-287.642
-290.799
-293.852
-296.776
-299.543
-302.128
-304.508
-306.66
-308.566
-310.209
-311.574
-312.648
-313.422
-313.887
-314.036
-313.866
-313.372
-312.553
-311.409
-309.944
-308.163
-306.074
-303.687
-301.015
-298.07
-294.869
-291.425
-287.753
-283.866
-279.78
-275.507
-271.062
-266.461
-261.718
-256.848
-251.867
-246.792
-241.642
-236.434
-231.183
-225.903
-220.608
-215.308
-210.014
-204.732
-199.462
-194.203
-188.956
-183.726
-178.515
-173.329
-168.176
-163.063
-158.001
-152.999
-148.059
-143.183
-138.361
-133.582
-128.84
-124.14
-119.498
-114.951
-110.531
-106.263
-102.173
-98.266
-94.521
-90.901
-87.33
-83.72
-80.011
-76.155
-72.133
-67.981
-63.727
-59.4
-55.013
-50.511
-45.83
-40.938
-35.81
-30.469
-25.008
-19.539
-14.278
-9.56
-5.584
-2.42
-0.016
1.915
3.645
5.304
7.019
8.845
10.462
11.347
10.842
8.049
2.443
-5.962
-16.904
-29.791
-43.511
-56.72
-67.946
-75.521
-78.449
-76.485
-69.501
-57.527
-40.834
-19.757
5.02
32.313
61.403
91.971
123.117
153.533
181.409
204.281
220.048
227.368
224.841
211.895
189.671
159.473
122.937
80.888
32.782
-19.794
-72.103
-116.101
-143.616
-151.469
-142.829
-126.198
-110.255
-99.831
-95.504
-94.742
-95.459
-97.392
-101.058
-107.216
-115.621
-124.885
-133.847
-141.725
-148.103
-152.933
-156.113
-157.716
-158.139
-157.829
-157.25
-156.091
-153.213
-148.785
-143.741
-139.835
-140.238
-144.473
-149.248
-151.262
-145.882
-133.151
-117.537
-102.494
-91.829
-86.069
-81.972
-77.635
-71.693
-63.862
-55.565
-47.441
-39.522
-31.915
-24.468
-17.197
-10.335
-3.977
1.866
7.15
11.831
15.88
19.267
21.978
24.019
25.375
26.014
25.917
25.071
23.476
21.141
18.066
14.26
9.738
4.52
-1.357
-7.847
-14.919
-22.543
-30.652
-39.185
-48.08
-57.265
-66.7
-76.364
-86.18
-96.059
-106.028
-116.129
-126.245
-136.329
-146.347
-156.037
-165.924
-176.522
-186.99
-197.048
-205.192
-209.635
-212.293
-214.436
-217.974
-225.542
-234.788
-243.721
-250.981
-254.322
-255.362
-255.743
-255.845
-256.682
-257.7
-258.184
-258.306
-258.002
-257.357
-256.556
-255.538
-254.263
-252.795
-251.179
-249.442
-247.625
-245.769
-243.912
-242.101
-240.385
-238.784
-237.319
-236.015
-234.893
-233.969
-233.26
-232.775
-232.518
-232.494
-232.706
-233.15
-233.82
-234.708
-235.8
-237.082
-238.535
-240.14
-241.875
-243.715
-245.635
-247.606
-249.602
-251.594
-253.551
-255.447
-257.252
-258.938
-260.479
-261.85
-263.027
-263.989
-264.715
-265.187
-265.392
-265.316
-264.949
-264.283
-263.313
-262.037
-260.454
-258.568
-256.382
-253.906
-251.147
-248.118
-244.833
-241.306
-237.556
-233.6
-229.459
-225.153
-220.703
-216.132
-211.46
-206.71
-201.902
-197.059
-192.198
-187.34
-182.5
-177.695
-172.938
-168.241
-163.614
-159.065
-154.599
-150.221
-145.931
-141.731
-137.617
-133.587
-129.635
-125.753
-121.934
-118.166
-114.439
-110.74
-107.053
-103.365
-99.659
-95.92
-92.129
-88.27
-84.326
-80.281
-76.117
-71.819
-67.371
-62.759
-57.968
-52.988
-47.806
-42.414
-36.804
-30.971
-24.911
-18.622
-12.104
-5.358
1.614
8.808
16.221
23.847
31.679
39.712
47.936
56.344
64.923
73.664
82.552
91.575
100.72
109.971
119.315
128.737
138.222
147.758
157.329
166.922
176.523
186.115
195.685
205.218
214.702
224.125
233.474
242.741
251.919
261
269.981
278.854
287.616
296.261
304.782
313.176
321.435
329.553
337.522
345.339
353.003
360.514
367.87
375.074
382.126
389.029
395.789
402.405
408.874
415.193
421.35
427.342
433.165
438.815
444.292
449.592
454.711
459.651
464.422
469.026
473.464
477.732
481.814
485.709
489.421
492.952
496.318
499.54
502.638
505.66
508.64
511.598
514.555
517.51
520.44
523.31
526.038
528.543
530.782
532.728
534.406
535.811
536.814
537.404
537.697
537.748
537.695
537.526
536.882
535.712
534.375
532.833
530.825
527.991
523.462
517.036
509.517
501.086
491.38
480.79
470.107
460.891
455.863
455.752
459.069
465.33
474.991
489.73
511.922
540.198
568.672
589.599
595.997
584.592
556.885
518.433
475.235
431.528
389.527
348.332
307.059
266.901
230.318
200.572
179.641
167.48
162.977
164.737
171.472
181.672
193.214
203.927
212.351
217.712
219.862
219.047
215.572
210.095
203.771
197.573
192.003
187.192
182.873
178.723
174.583
170.203
165.222
159.442
152.817
145.486
137.794
129.995
122.207
114.511
106.935
99.5
92.256
85.225
78.411
71.828
65.489
59.415
53.637
48.146
42.896
37.807
32.761
27.675
22.507
17.228
11.843
6.356
0.763
-4.921
-10.672
-16.48
-22.343
-28.266
-34.27
-40.36
-46.528
-52.759
-59.029
-65.319
-71.615
-77.905
-84.176
-90.42
-96.63
-102.804
-108.947
-115.057
-121.127
-127.147
-133.103
-138.982
-144.77
-150.453
-156.012
-161.433
-166.701
-171.803
-176.728
-181.466
-186.004
-190.332
-194.44
-198.318
-201.958
-205.349
-208.484
-211.354
-213.954
-216.281
-218.33
-220.102
-221.595
-222.813
-223.757
-224.434
-224.849
-225.008
-224.92
-224.595
-224.044
-223.28
-222.32
-221.18
-219.877
-218.431
-216.862
-215.192
-213.44
-211.629
-209.778
-207.908
-206.04
-204.193
-202.385
-200.636
-198.963
-197.382
-195.909
-194.559
-193.342
-192.271
-191.355
-190.6
-190.014
-189.6
-189.361
-189.296
-189.405
-189.686
-190.132
-190.737
-191.494
-192.393
-193.421
-194.567
-195.816
-197.153
-198.563
-200.029
-201.535
-203.062
-204.594
-206.115
-207.605
-209.05
-210.434
-211.74
-212.955
-214.065
-215.059
-215.925
-216.654
-217.237
-217.669
-217.942
-218.054
-218.002
-217.785
-217.404
-216.861
-216.159
-215.303
-214.3
-213.156
-211.88
-210.482
-208.971
-207.358
-205.653
-203.869
-202.015
-200.104
-198.146
-196.152
-194.132
-192.096
-190.052
-188.008
-185.971
-183.947
-181.941
-179.956
-177.995
-176.059
-174.147
-172.259
-170.393
-168.544
-166.707
-164.878
-163.051
-161.218
-159.369
-157.491
-155.573
-153.604
-151.574
-149.472
-147.282
-144.994
-142.603
-140.115
-137.533
-134.855
-132.063
-129.142
-126.095
-122.917
-119.575
-116.017
-112.198
-108.1
-103.761
-99.22
-94.46
-89.519
-84.574
-79.782
-75.204
-70.821
-66.459
-62.452
-59.785
-58.909
-59.239
-58.348
-52.718
-40.783
-24.264
-8.341
1.132
1.418
-5.839
-14.914
-20.212
-19.431
-13.474
-6.487
-2.6
-2.462
-4.637
-6.033
-2.587
5.336
14.238
20.585
19.576
11.183
0.023
-10.394
-16.214
-16.834
-15.66
-14.762
-15.595
-18.554
-22.213
-25.913
-29.661
-33.383
-37.258
-41.296
-45.275
-49.113
-52.827
-56.4
-59.804
-63.01
-65.988
-68.724
-71.208
-73.388
-75.182
-76.534
-77.419
-77.848
-77.855
-77.459
-76.75
-75.947
-75.188
-74.461
-73.685
-72.676
-71.724
-71.627
-72.604
-73.971
-73.226
-66.853
-52.916
-32.263
-9.935
7.152
13.573
7.621
-6.497
-21.981
-31.906
-31.443
-20.428
-0.499
25.025
51.691
75.691
92.535
99.419
96.598
86.935
76.113
68.712
66.519
68.66
71.19
71.69
70.085
67.041
65.452
66.401
68.509
72.304
78.155
87.659
105.546
133.459
169.636
210.242
246.385
268.716
272.82
258.346
230.836
200.412
173.862
153.923
139.992
128.417
118.028
110.071
106.339
108.708
117.051
130.044
146.37
164.388
182.414
199.185
213.579
224.854
232.932
238.023
240.313
240.861
241.681
243.347
245.569
247.174
245.158
239.688
233.856
230.587
233.991
244.185
256.853
268.679
276.219
278.86
279.633
280.268
282.031
285.441
289.201
292.805
295.983
297.719
298.368
298.972
300.99
307.328
318.465
332.385
345.68
352.703
350.939
341.168
326.941
315.38
310.936
315.449
327.266
340.295
350.305
354.61
353.095
349.273
345.418
342.828
341.917
341.406
340.678
339.755
338.587
337.404
336.256
334.94
333.378
331.576
329.519
327.213
324.672
321.905
318.932
315.787
312.482
309.008
305.363
301.549
297.565
293.418
289.107
284.633
279.998
275.209
270.27
265.187
259.964
254.606
249.118
243.505
237.772
231.924
225.966
219.904
213.742
207.485
201.138
194.706
188.193
181.604
174.942
168.212
161.418
154.564
147.654
140.691
133.679
126.623
119.527
112.393
105.226
98.031
90.811
83.569
76.311
69.04
61.76
54.477
47.195
39.919
32.655
25.408
18.185
10.992
3.836
-3.276
-10.336
-17.337
-24.269
-31.125
-37.894
-44.568
-51.136
-57.588
-63.914
-70.103
-76.144
-82.025
-87.737
-93.267
-98.604
-103.738
-108.658
-113.352
-117.812
-122.027
-125.987
-129.686
-133.114
-136.264
-139.131
-141.708
-143.991
-145.975
-147.66
-149.041
-150.118
-150.891
-151.361
-151.528
-151.397
-150.969
-150.249
-149.242
-147.953
-146.388
-144.554
-142.459
-140.111
-137.519
-134.693
-131.643
-128.378
-124.911
-121.251
-117.411
-113.401
-109.233
-104.919
-100.468
-95.893
-91.203
-86.409
-81.521
-76.549
-71.502
-66.389
-61.219
-55.999
-50.739
-45.445
-40.125
-34.787
-29.437
-24.084
-18.735
-13.398
-8.078
-2.785
2.474
7.692
12.863
17.978
23.03
28.013
32.919
37.74
42.47
47.1
51.623
56.03
60.314
64.465
68.476
72.338
76.041
79.576
82.935
86.109
89.087
91.861
94.422
96.762
98.872
100.746
102.378
103.761
104.89
105.764
106.377
106.73
106.821
106.649
106.217
105.526
104.578
103.377
101.929
100.238
98.313
96.159
93.787
91.207
88.429
85.465
82.327
79.029
75.585
72.011
68.323
64.538
60.674
56.748
52.779
48.787
44.79
40.805
36.849
32.938
29.089
25.32
21.649
18.089
14.655
11.361
8.218
5.24
2.436
-0.189
-2.628
-4.88
-6.938
-8.794
-10.445
-11.888
-13.128
-14.175
-15.039
-15.728
-16.254
-16.627
-16.862
-16.978
-16.983
-16.884
-16.688
-16.398
-16.032
-15.616
-15.173
-14.721
-14.257
-13.763
-13.227
-12.636
-12.008
-11.378
-10.759
-10.182
-9.693
-9.295
-9.063
-9.125
-9.415
-9.794
-10.173
-10.313
-10.21
-10.308
-10.739
-11.361
-12.531
-14.047
-15.839
-19.307
-24.6
-32.295
-43.618
-56.768
-70.518
-82.835
-90.536
-94.659
-96.707
-98.505
-102.501
-106.994
-109.772
-110.097
-107.333
-102.918
-98.444
-94.026
-89.818
-86.513
-85.492
-87.96
-94.71
-105.383
-118.063
-131.543
-145.505
-160.859
-179.47
-201.366
-224.07
-241.769
-247.825
-240.032
-219.874
-193.357
-169.663
-153.223
-145.775
-147.078
-151.909
-157.354
-162.02
-163.811
-164.34
-164.865
-165.211
-165.947
-166.398
-165.852
-164.669
-163.215
-161.79
-160.633
-159.699
-158.85
-158.098
-157.508
-157.063
-156.713
-156.437
-156.232
-156.139
-156.251
-156.603
-157.201
-158.047
-159.128
-160.44
-161.987
-163.76
-165.745
-167.922
-170.27
-172.765
-175.386
-178.11
-180.911
-183.76
-186.623
-189.472
-192.281
-195.028
-197.696
-200.263
-202.707
-205.009
-207.147
-209.104
-210.865
-212.413
-213.733
-214.814
-215.645
-216.219
-216.529
-216.573
-216.347
-215.852
-215.088
-214.059
-212.77
-211.229
-209.445
-207.428
-205.191
-202.748
-200.112
-197.301
-194.331
-191.218
-187.98
-184.634
-181.199
-177.691
-174.127
-170.526
-166.902
-163.272
-159.651
-156.053
-152.493
-148.984
-145.536
-142.162
-138.871
-135.673
-132.576
-129.585
-126.708
-123.949
-121.312
-118.801
-116.415
-114.158
-112.029
-110.026
-108.149
-106.396
-104.762
-103.245
-101.84
-100.544
-99.351
-98.257
-97.257
-96.345
-95.516
-94.766
-94.089
-93.48
-92.935
-92.447
-92.014
-91.63
-91.291
-90.993
-90.733
-90.506
-90.31
-90.142
-89.999
-89.879
-89.778
-89.696
-89.63
-89.579
-89.543
-89.521
-89.513
-89.519
-89.54
-89.578
-89.634
-89.711
-89.811
-89.938
-90.096
-90.289
-90.522
-90.8
-91.129
-91.516
-91.968
-92.492
-93.096
-93.788
-94.577
-95.471
-96.479
-97.611
-98.876
-100.282
-101.84
-103.559
-105.447
-107.513
-109.766
-112.213
-114.861
-117.717
-120.786
-124.072
-127.579
-131.309
-135.262
-139.437
-143.833
-148.445
-153.268
-158.294
-163.515
-168.92
-174.495
-180.226
-186.097
-192.089
-198.183
-204.356
-210.586
-216.847
-223.114
-229.359
-235.554
-241.668
-247.672
-253.533
-259.22
-264.7
-269.94
-274.908
-279.571
-283.895
-287.851
-291.405
-294.528
-297.191
-299.365
-301.025
-302.146
-302.703
-302.677
-302.048
-300.8
-298.917
-296.389
-293.205
-289.359
-284.845
-279.664
-273.815
-267.301
-260.13
-252.309
-243.849
-234.765
-225.071
-214.786
-203.931
-192.528
-180.602
-168.181
-155.292
-141.966
-128.236
-114.135
-99.697
-84.959
-69.958
-54.731
-39.317
-23.755
-8.085
7.654
23.421
39.177
54.882
70.499
85.987
101.312
116.434
131.321
145.936
160.247
174.221
187.829
201.041
213.829
226.167
238.033
249.403
260.26
270.587
280.368
289.591
298.245
306.323
313.819
320.729
327.052
332.789
337.945
342.526
346.545
350.012
352.942
355.349
357.25
358.659
359.597
360.084
360.141
359.794
359.069
357.995
356.605
354.931
353.005
350.859
348.519
346.015
343.379
340.648
337.86
335.061
332.287
329.572
326.949
324.444
322.079
319.871
317.827
315.953
314.25
312.724
311.388
310.251
309.299
308.502
307.794
307.109
306.417
305.698
304.959
304.222
303.453
302.651
301.888
301.126
300.263
299.143
297.405
294.777
291.316
287.089
282.208
277.167
272.453
268.703
267.025
268.122
272.009
278.603
287.488
297.612
308.023
317.413
323.784
325.917
323.434
316.106
304.229
288.676
270.267
250.496
231.651
215.137
201.667
191.824
185.748
183.397
184.651
188.529
193.317
197.927
201.726
204.22
205.159
204.129
200.824
195.637
189.476
182.991
176.563
170.41
164.619
159.491
155.309
152.022
149.345
147.026
144.938
143.078
141.523
140.253
139.206
138.378
137.812
137.563
137.66
138.079
138.764
139.665
140.758
142.031
143.479
145.093
146.859
148.766
150.808
152.982
155.285
157.713
160.262
162.924
165.693
168.564
171.537
174.61
177.777
181.029
184.356
187.744
191.183
194.663
198.173
201.702
205.237
208.766
212.276
215.754
219.189
222.565
225.867
229.081
232.19
235.179
238.034
240.737
243.275
245.631
247.789
249.734
251.452
252.929
254.153
255.109
255.789
256.182
256.279
256.076
255.566
254.746
253.614
252.172
250.421
248.363
246.006
243.353
240.415
237.201
233.72
229.985
226.009
221.805
217.389
212.777
207.984
203.026
197.922
192.686
187.337
181.89
176.361
170.766
165.119
159.434
153.723
147.999
142.27
136.546
130.834
125.138
119.465
113.814
108.187
102.584
97.002
91.437
85.884
80.337
74.791
69.236
63.666
58.071
52.442
46.771
41.049
35.268
29.419
23.495
17.491
11.401
5.222
-1.05
-7.416
-13.874
-20.424
-27.061
-33.781
-40.576
-47.437
-54.354
-61.315
-68.306
-75.311
-82.315
-89.298
-96.241
-103.126
-109.93
-116.632
-123.212
-129.648
-135.917
-141.999
-147.875
-153.524
-158.929
-164.071
-168.938
-173.513
-177.787
-181.749
-185.392
-188.71
-191.701
-194.364
-196.701
-198.715
-200.413
-201.804
-202.898
-203.708
-204.248
-204.534
-204.583
-204.416
-204.051
-203.511
-202.816
-201.989
-201.053
-200.031
-198.945
-197.817
-196.669
-195.519
-194.387
-193.288
-192.238
-191.25
-190.334
-189.499
-188.752
-188.096
-187.534
-187.065
-186.684
-186.386
-186.163
-186.004
-185.896
-185.824
-185.773
-185.723
-185.658
-185.557
-185.401
-185.169
-184.84
-184.393
-183.805
-183.056
-182.123
-180.987
-179.627
-178.025
-176.165
-174.036
-171.627
-168.928
-165.936
-162.647
-159.062
-155.186
-151.022
-146.579
-141.866
-136.9
-131.697
-126.28
-120.674
-114.904
-109.001
-102.998
-96.93
-90.83
-84.734
-78.677
-72.695
-66.826
-61.11
-55.584
-50.29
-45.267
-40.558
-36.206
-32.253
-28.737
-25.693
-23.15
-21.137
-19.682
-18.803
-18.512
-18.817
-19.727
-21.248
-23.39
-26.157
-29.551
-33.569
-38.21
-43.472
-49.348
-55.82
-62.855
-70.422
-78.487
-87.031
-96.042
-105.505
-115.392
-125.673
-136.32
-147.294
-158.532
-169.941
-181.388
-192.739
-203.878
-214.723
-225.211
-235.288
-244.916
-254.052
-262.657
-270.704
-278.141
-284.899
-290.907
-296.133
-300.622
-304.504
-307.955
-311.176
-314.365
-317.601
-320.872
-324.062
-326.879
-329.02
-330.246
-330.36
-329.25
-327.176
-324.713
-322.496
-321.249
-321.527
-323.493
-327.061
-332.014
-337.365
-341.373
-342.397
-338.844
-329.276
-312.85
-288.851
-256.435
-216.012
-169.265
-117.767
-63.291
-7.749
47.374
99.802
146.344
185.194
215.803
