Name
Date of Birth,"Dec 28, 2003"
Recorded Date,2024-09-19 10:06:44 -0500
Classification,Sinus Rhythm
Symptoms,
Software Version,1.90
Device,"Watch4,4"
Sample Rate,512.711 hertz


Lead,Lead I
Unit,µV

317.976
411.731
443.682
409.308
323.662
214.005
106.349
16.155
-46.728
-80.51
-90.069
-79.639
-58.238
-36.087
-17.128
-4.166
3.327
9.644
15.069
18.307
18.439
13.502
3.631
-9.127
-23.108
-37.069
-50.114
-61.974
-72.594
-81.867
-89.982
-97.442
-104.739
-112.115
-119.662
-127.335
-135.014
-142.701
-150.351
-157.807
-164.909
-171.53
-177.598
-183.106
-188.034
-192.278
-195.763
-198.462
-200.395
-201.674
-202.377
-202.543
-202.192
-201.309
-199.932
-198.158
-196.083
-193.805
-191.436
-189.087
-186.962
-185.36
-184.497
-184.519
-185.491
-187.348
-190.068
-193.634
-197.985
-203.067
-208.738
-214.8
-221.081
-227.387
-233.479
-239.092
-243.831
-247.222
-248.94
-248.682
-246.174
-241.329
-234.042
-224.377
-212.671
-199.103
-183.726
-166.641
-147.877
-127.431
-105.41
-81.593
-55.462
-27.096
3
34.043
64.838
94.374
121.875
146.166
165.762
179.887
188.451
192.05
192.066
189.61
185.39
180.429
176.008
173.038
172.025
172.863
174.746
177.166
180.057
183.26
186.588
189.897
193.016
196.028
199.329
203.109
207.324
211.876
216.533
221.084
225.449
229.511
233.106
236.131
238.479
240.081
240.954
241.114
240.558
239.29
237.302
234.601
231.246
227.306
222.855
217.98
212.732
207.149
201.268
195.115
188.716
182.095
175.26
168.214
160.973
153.562
146.013
138.361
130.625
122.824
114.974
107.092
99.202
91.331
83.505
75.751
68.102
60.592
53.256
46.131
39.246
32.628
26.298
20.277
14.582
9.229
4.233
-0.397
-4.65
-8.518
-11.995
-15.076
-17.76
-20.048
-21.944
-23.455
-24.59
-25.36
-25.778
-25.86
-25.622
-25.085
-24.268
-23.194
-21.886
-20.371
-18.674
-16.823
-14.847
-12.774
-10.632
-8.451
-6.257
-4.077
-1.937
0.138
2.126
4.003
5.748
7.342
8.768
10.008
11.048
11.875
12.479
12.85
12.983
12.871
12.512
11.902
11.04
9.928
8.566
6.96
5.114
3.036
0.734
-1.782
-4.498
-7.403
-10.483
-13.725
-17.116
-20.643
-24.29
-28.043
-31.887
-35.808
-39.791
-43.819
-47.875
-51.943
-56.009
-60.061
-64.086
-68.073
-72.01
-75.89
-79.708
-83.456
-87.125
-90.705
-94.188
-97.564
-100.822
-103.953
-106.945
-109.788
-112.474
-114.998
-117.357
-119.544
-121.554
-123.383
-125.027
-126.485
-127.753
-128.826
-129.693
-130.351
-130.803
-131.062
-131.144
-131.059
-130.809
-130.399
-129.837
-129.123
-128.24
-127.146
-125.772
-124.067
-122.008
-119.591
-116.826
-113.716
-110.255
-106.447
-102.312
-97.876
-93.163
-88.166
-82.843
-77.213
-71.372
-65.507
-59.877
-54.696
-50.078
-46.12
-42.941
-40.561
-38.92
-37.858
-36.996
-36.002
-34.834
-33.501
-32.047
-30.749
-29.791
-29.287
-29.657
-31.211
-33.797
-37.268
-41.295
-44.931
-47.388
-48.007
-45.773
-39.893
-29.889
-14.988
5.349
30.739
60.633
94.274
130.516
168.257
205.872
240.751
269.996
291.222
302.316
301.435
287.013
257.653
214.144
159.926
97.982
30.963
-39.551
-114.092
-187.943
-252.461
-300.582
-324.864
-325.495
-310.581
-287.084
-262.767
-242.167
-224.205
-208.537
-194.761
-182.701
-173.846
-168.517
-165.825
-164.466
-162.733
-159.684
-155.245
-149.594
-143.074
-136.063
-128.918
-122.15
-116.309
-111.643
-108.135
-105.632
-103.886
-102.699
-101.936
-101.41
-100.898
-100.253
-99.371
-98.218
-96.824
-95.189
-93.293
-91.137
-88.733
-86.115
-83.349
-80.486
-77.562
-74.624
-71.715
-68.885
-66.197
-63.686
-61.366
-59.244
-57.308
-55.549
-53.96
-52.524
-51.209
-49.989
-48.831
-47.707
-46.597
-45.473
-44.303
-43.054
-41.694
-40.197
-38.543
-36.712
-34.689
-32.46
-30.012
-27.34
-24.441
-21.312
-17.949
-14.349
-10.512
-6.44
-2.138
2.387
7.125
12.066
17.193
22.489
27.935
33.509
39.19
44.954
50.779
56.637
62.504
68.351
74.154
79.883
85.512
91.012
96.358
101.524
106.486
111.221
115.708
119.928
123.863
127.497
130.817
133.811
136.469
138.785
140.754
142.376
143.65
144.583
145.18
145.451
145.408
145.066
144.441
143.55
142.413
141.05
139.484
137.738
135.837
133.806
131.672
129.461
127.202
124.92
122.64
120.388
118.186
116.057
114.02
112.094
110.295
108.638
107.136
105.802
104.643
103.666
102.873
102.265
101.839
101.588
101.502
101.567
101.769
102.091
102.515
103.022
103.595
104.213
104.858
105.511
106.149
106.747
107.277
107.709
108.01
108.149
108.094
107.814
107.284
106.478
105.379
103.977
102.259
100.212
97.819
95.053
91.903
88.367
84.441
80.133
75.462
70.456
65.171
59.67
54.001
48.199
42.288
36.266
30.141
23.921
17.603
11.205
4.734
-1.81
-8.401
-15.022
-21.675
-28.388
-35.24
-42.335
-49.725
-57.435
-65.471
-73.799
-82.4
-91.225
-100.164
-109.114
-117.972
-126.635
-135.045
-143.145
-150.836
-157.979
-164.388
-169.852
-174.242
-177.462
-179.423
-180.073
-179.343
-177.229
-173.857
-169.375
-163.942
-157.708
-150.798
-143.349
-135.569
-127.724
-120.093
-112.96
-106.536
-101.001
-96.556
-93.39
-91.708
-91.637
-93.168
-96.249
-100.809
-106.785
-114.11
-122.689
-132.348
-142.848
-153.971
-165.485
-177.186
-188.915
-200.512
-211.833
-222.761
-233.22
-243.159
-252.611
-261.682
-270.386
-278.717
-286.542
-293.544
-299.652
-305.048
-309.906
-314.438
-318.942
-323.606
-328.952
-336.054
-345.39
-356.857
-370.252
-384.875
-399.736
-414.038
-426.637
-435.554
-440.293
-441.762
-439.21
-432.171
-419.514
-397.775
-369.038
-339.871
-316.192
-306.045
-311.315
-325.808
-344.337
-361.083
-373.501
-384.86
-397.178
-411.199
-426.43
-440.716
-453.058
-463.762
-473.623
-483.24
-492.576
-501.337
-509.153
-515.597
-520.333
-522.881
-522.756
-519.965
-514.676
-507.074
-497.567
-486.565
-474.377
-461.247
-446.904
-430.609
-411.856
-390.423
-366.301
-339.617
-310.482
-279.398
-248.039
-218.89
-194.378
-176.938
-168.553
-171.039
-186.749
-216.288
-257.496
-307.741
-363.8
-425.073
-495.116
-573.648
-656.607
-734.746
-791.669
-817.456
-809.765
-772.937
-723.714
-677.456
-643.464
-628.061
-625.914
-628.009
-629.83
-626.922
-620.131
-614.105
-609.749
-607.323
-606.495
-605.129
-602.724
-599.812
-596.595
-593.66
-591.559
-590.439
-590.326
-591.186
-592.751
-594.669
-596.719
-598.691
-600.414
-601.786
-602.708
-603.107
-602.975
-602.332
-601.186
-599.551
-597.424
-594.803
-591.714
-588.187
-584.264
-579.994
-575.415
-570.574
-565.491
-560.162
-554.579
-548.721
-542.556
-536.053
-529.169
-521.857
-514.079
-505.802
-496.99
-487.611
-477.627
-466.997
-455.683
-443.646
-430.853
-417.281
-402.901
-387.688
-371.621
-354.679
-336.863
-318.182
-298.633
-278.219
-256.947
-234.824
-211.87
-188.115
-163.563
-138.227
-112.121
-85.26
-57.69
-29.459
-0.615
28.784
58.707
89.123
119.973
151.197
182.756
214.594
246.676
278.973
311.379
343.793
376.119
408.248
440.117
471.658
502.787
533.422
563.472
592.838
621.455
649.262
676.158
702.063
726.877
750.498
772.925
794.159
814.178
832.98
850.528
866.783
881.741
895.4
907.744
918.772
928.467
936.824
943.882
949.677
954.253
957.658
959.875
960.906
960.782
959.527
957.196
953.848
949.537
944.344
938.372
931.721
924.477
916.699
908.425
899.703
890.581
881.11
871.345
861.302
850.998
840.465
829.727
818.809
807.711
796.37
784.719
772.717
760.36
747.694
734.766
721.598
708.231
694.731
681.211
667.854
654.813
642.188
630.089
618.621
607.932
598.255
589.802
582.735
577.178
573.218
570.934
570.432
571.782
574.956
579.851
586.276
594.052
603.061
613.154
624.15
635.819
647.85
659.931
671.796
683.171
693.758
703.274
711.415
717.904
722.588
725.388
726.281
725.273
722.335
717.474
710.755
702.286
692.214
680.719
667.965
654.157
639.569
624.458
609.081
593.696
578.465
563.513
548.945
534.833
521.242
508.229
495.808
483.974
472.723
462.026
451.847
442.127
432.747
423.612
414.644
405.763
396.933
388.135
379.347
370.575
361.843
353.171
344.589
336.133
327.822
319.684
311.757
304.085
296.727
289.727
283.11
276.893
271.081
265.669
260.653
256.007
251.691
247.665
243.896
240.353
237.005
233.817
230.736
227.709
224.688
221.64
218.539
215.363
212.091
208.709
205.226
201.669
198.07
194.445
190.794
187.104
183.379
179.637
175.913
172.232
168.584
164.934
161.253
157.514
153.682
149.696
145.428
140.731
135.481
129.596
123.047
115.802
107.796
98.961
89.209
78.502
66.899
54.474
41.322
27.57
13.305
-1.316
-15.89
-30.025
-43.367
-55.554
-66.501
-76.127
-84.036
-89.835
-93.368
-94.528
-93.557
-90.892
-86.442
-80.074
-71.999
-62.515
-52.013
-40.845
-28.59
-14.285
2.561
22.188
44.671
69.845
97.782
128.514
160.833
192.406
220.788
243.424
258.043
262.97
256.15
236.3
204.681
163.449
114.39
57.121
-10.541
-87.936
-168.47
-239.1
-286.879
-306.031
-299.796
-279.532
-256.665
-237.085
-221.779
-207.988
-193.348
-177.96
-163.235
-151.079
-142.199
-136.019
-131.307
-126.408
-120.529
-113.591
-105.659
-97.139
-88.419
-79.782
-71.731
-64.834
-59.367
-55.389
-52.813
-51.396
-50.939
-51.302
-52.29
-53.68
-55.257
-56.854
-58.385
-59.83
-61.177
-62.396
-63.452
-64.328
-65.045
-65.65
-66.189
-66.695
-67.191
-67.707
-68.289
-68.988
-69.865
-70.959
-72.282
-73.839
-75.626
-77.637
-79.867
-82.295
-84.888
-87.611
-90.438
-93.344
-96.314
-99.323
-102.344
-105.35
-108.313
-111.215
-114.038
-116.766
-119.384
-121.881
-124.245
-126.471
-128.556
-130.495
-132.28
-133.906
-135.365
-136.653
-137.767
-138.701
-139.452
-140.02
-140.403
-140.603
-140.623
-140.466
-140.134
-139.631
-138.961
-138.128
-137.138
-135.996
-134.704
-133.271
-131.7
-129.999
-128.172
-126.225
-124.164
-121.992
-119.715
-117.339
-114.868
-112.306
-109.658
-106.931
-104.128
-101.256
-98.32
-95.326
-92.281
-89.19
-86.06
-82.899
-79.712
-76.505
-73.287
-70.063
-66.841
-63.628
-60.432
-57.261
-54.123
-51.026
-47.979
-44.992
-42.073
-39.232
-36.48
-33.827
-31.283
-28.86
-26.567
-24.417
-22.419
-20.585
-18.924
-17.446
-16.161
-15.076
-14.199
-13.537
-13.095
-12.879
-12.892
-13.136
-13.613
-14.324
-15.268
-16.442
-17.846
-19.475
-21.324
-23.389
-25.662
-28.136
-30.804
-33.657
-36.684
-39.874
-43.217
-46.701
-50.313
-54.039
-57.866
-61.78
-65.768
-69.814
-73.904
-78.024
-82.16
-86.298
-90.426
-94.531
-98.602
-102.627
-106.597
-110.504
-114.338
-118.092
-121.761
-125.338
-128.817
-132.196
-135.469
-138.633
-141.687
-144.627
-147.451
-150.158
-152.746
-155.215
-157.561
-159.786
-161.886
-163.862
-165.713
-167.438
-169.038
-170.511
-171.858
-173.08
-174.175
-175.144
-175.986
-176.701
-177.287
-177.744
-178.069
-178.263
-178.324
-178.249
-178.038
-177.69
-177.204
-176.58
-175.817
-174.914
-173.874
-172.696
-171.384
-169.941
-168.374
-166.689
-164.894
-163
-161.018
-158.961
-156.841
-154.67
-152.464
-150.237
-148.005
-145.785
-143.594
-141.45
-139.371
-137.38
-135.495
-133.737
-132.123
-130.672
-129.403
-128.336
-127.487
-126.872
-126.508
-126.411
-126.597
-127.079
-127.866
-128.965
-130.379
-132.114
-134.17
-136.547
-139.24
-142.243
-145.552
-149.159
-153.06
-157.246
-161.703
-166.416
-171.378
-176.587
-182.049
-187.771
-193.746
-199.945
-206.347
-212.93
-219.663
-226.511
-233.423
-240.34
-247.217
-254.037
-260.785
-267.433
-273.926
-280.173
-286.064
-291.506
-296.454
-300.908
-304.897
-308.456
-311.634
-314.555
-317.4
-320.27
-323.127
-325.756
-327.828
-329.157
-329.73
-329.512
-328.516
-327.024
-325.552
-324.922
-326.154
-329.839
-336.127
-345.116
-356.648
-370.019
-384.096
-397.188
-407.343
-413.221
-413.931
-408.431
-395.904
-376.147
-349.567
-317.559
-281.871
-243.711
-204.366
-165.961
-131.001
-101.989
-81.238
-69.981
-69.222
-80.504
-104.511
-140.383
-186.127
-238.668
-294.138
-349.167
-400.084
-442.407
-472.866
-489.793
-492.703
-482.676
-462.03
-433.156
-399.146
-364.032
-330.785
-301.272
-276.743
-257.316
-242.383
-231.299
-222.849
-215.23
-207.383
-198.837
-189.341
-179.208
-168.842
-158.509
-148.746
-140.215
-133.202
-127.775
-123.86
-121.144
-119.402
-118.498
-118.192
-118.292
-118.677
-119.238
-119.95
-120.839
-121.885
-123.062
-124.362
-125.759
-127.257
-128.882
-130.642
-132.558
-134.652
-136.94
-139.448
-142.176
-145.1
-148.191
-151.408
-154.701
-158.024
-161.328
-164.554
-167.653
-170.58
-173.283
-175.719
-177.841
-179.6
-180.949
-181.845
-182.246
-182.123
-181.448
-180.201
-178.365
-175.928
-172.885
-169.234
-164.978
-160.117
-154.658
-148.608
-141.981
-134.794
-127.066
-118.82
-110.084
-100.889
-91.269
-81.261
-70.904
-60.237
-49.301
-38.138
-26.79
-15.3
-3.71
7.936
19.597
31.23
42.795
54.25
65.558
76.68
87.582
98.232
108.598
118.652
128.369
137.726
146.703
155.281
163.446
171.186
178.493
185.359
191.782
197.761
203.299
208.401
213.075
217.331
221.181
224.639
227.721
230.444
232.827
234.889
236.651
238.133
239.357
240.347
241.123
241.709
242.127
242.399
242.547
242.593
242.556
242.458
242.316
242.148
241.972
241.802
241.655
241.544
241.48
241.475
241.539
241.68
241.906
242.223
242.634
243.146
243.759
244.475
245.296
246.222
247.251
248.382
249.613
250.941
252.364
253.878
255.478
257.161
258.921
260.754
262.656
264.622
266.646
268.724
270.852
273.025
275.24
277.491
279.777
282.093
284.435
286.802
289.19
291.597
294.021
296.46
298.912
301.378
303.856
306.345
308.846
311.358
313.881
316.415
318.96
321.516
324.084
326.664
329.257
331.862
334.48
337.112
339.758
342.415
345.085
347.764
350.451
353.143
355.837
358.528
361.212
363.884
366.537
369.166
371.764
374.321
376.829
379.279
381.66
383.961
386.171
388.277
390.268
392.131
393.854
395.423
396.826
398.049
399.078
399.899
400.497
400.857
400.964
400.803
400.359
399.619
398.57
397.199
395.497
393.452
391.056
388.299
385.176
381.682
377.811
373.562
368.931
363.921
358.531
352.769
346.639
340.148
333.306
326.12
318.602
310.763
302.615
294.173
285.45
276.46
267.219
257.75
248.076
238.224
228.222
218.094
207.868
197.572
187.234
176.877
166.521
156.179
145.865
135.595
125.39
115.269
105.249
95.342
85.558
75.903
66.388
57.028
47.831
38.8
29.942
21.267
12.802
4.596
-3.312
-10.89
-18.12
-25.004
-31.533
-37.699
-43.495
-48.917
-54.002
-58.818
-63.441
-67.947
-72.377
-76.727
-81.065
-85.547
-90.25
-95.185
-100.188
-104.879
-109.094
-112.925
-116.46
-119.75
-122.803
-125.593
-128.579
-132.805
-138.957
-147.19
-157.184
-168.173
-179.661
-191.297
-201.89
-209.37
-211.78
-207.692
-196.82
-179.946
-157.516
-130.044
-99.332
-68.404
-40.856
-20.188
-8.897
-8.604
-21.197
-48.411
-89.517
-141.192
-200.644
-265.314
-334.044
-407.673
-480.882
-544.171
-590.114
-611.957
-610.493
-593.244
-563.639
-523.2
-473.256
-413.992
-353.164
-304.199
-275.487
-270.668
-284.652
-303.809
-318.938
-326.195
-326.208
-324.923
-325.362
-326.622
-327.255
-325.231
-320.124
-313.463
-306.686
-300.426
-294.907
-290.223
-286.311
-283.164
-280.697
-278.432
-275.888
-272.9
-269.407
-265.42
-261.046
-256.283
-251.125
-245.676
-240.034
-234.277
-228.466
-222.616
-216.731
-210.829
-204.921
-199.021
-193.137
-187.26
-181.378
-175.481
-169.55
-163.584
-157.591
-151.576
-145.551
-139.523
-133.497
-127.482
-121.486
-115.516
-109.583
-103.696
-97.864
-92.101
-86.423
-80.85
-75.403
-70.101
-64.958
-59.986
-55.198
-50.605
-46.221
-42.054
-38.114
-34.411
-30.954
-27.754
-24.82
-22.159
-19.775
-17.67
-15.846
-14.3
-13.027
-12.023
-11.278
-10.783
-10.527
-10.497
-10.68
-11.06
-11.622
-12.349
-13.222
-14.222
-15.331
-16.528
-17.795
-19.11
-20.455
-21.81
-23.156
-24.476
-25.752
-26.965
-28.101
-29.143
-30.077
-30.889
-31.565
-32.094
-32.466
-32.672
-32.705
-32.56
-32.232
-31.72
-31.022
-30.138
-29.071
-27.824
-26.399
-24.803
-23.04
-21.116
-19.04
-16.818
-14.458
-11.968
-9.356
-6.631
-3.801
-0.873
2.146
5.248
8.426
11.674
14.986
18.356
21.78
25.253
28.771
32.329
35.925
39.557
43.222
46.917
50.643
54.396
58.177
61.983
65.814
69.668
73.543
77.438
81.349
85.274
89.21
93.153
97.097
101.037
104.968
108.882
112.772
116.628
120.443
124.204
127.902
131.525
135.061
138.497
141.82
145.015
148.071
150.971
153.704
156.256
158.612
160.761
162.689
164.385
165.838
167.04
167.981
168.655
169.056
169.18
169.028
168.598
167.893
166.915
165.67
164.164
162.406
160.408
158.183
155.743
153.105
150.285
147.305
144.188
140.954
137.624
134.217
130.754
127.261
123.763
120.285
116.853
113.486
110.207
107.042
104.016
101.152
98.47
95.983
93.698
91.635
89.811
88.25
86.972
85.982
85.284
84.877
84.758
84.94
85.423
86.201
87.269
88.593
90.139
91.906
93.886
96.06
98.416
100.836
103.189
105.521
107.874
110.316
112.946
115.585
117.983
120.19
122.3
124.088
125.306
125.412
123.758
120.587
116.475
111.673
106.345
100.835
95.524
91.441
89.833
90.569
92.797
95.666
98.447
100.655
101.844
100.852
96.22
87.739
76.122
62.502
47.913
32.849
17.647
3.07
-9.827
-20.608
-29.546
-37.414
-44.939
-52.365
-59.733
-67.156
-74.93
-83.269
-92.086
-101.024
-109.737
-118.099
-126.126
-133.916
-141.503
-148.836
-155.914
-162.776
-169.462
-176.025
-182.471
-188.745
-194.819
-200.709
-206.402
-211.896
-217.15
-221.995
-226.266
-229.799
-232.356
-233.7
-233.685
-232.475
-230.411
-227.82
-225.189
-222.069
-218.06
-214.138
-210.287
-207.893
-208.046
-206.837
-201.762
-189.501
-166.041
-136.266
-104.883
-74.844
-52.654
-37.2
-26.66
-25.753
-34.9
-57.674
-99.191
-155.518
-223.833
-297.307
-363.305
-414.422
-442.981
-447.74
-435.991
-412.85
-385.299
-356.987
-326.222
-294.791
-264.168
-235.417
-211.62
-193.794
-181.177
-173.447
-169.375
-166.624
-163.971
-160.869
-156.801
-151.931
-146.579
-140.566
-133.921
-127.444
-121.575
-116.393
-112.002
-108.086
-104.328
-100.795
-97.522
-94.261
-90.854
-87.206
-83.203
-78.942
-74.532
-69.949
-65.195
-60.308
-55.333
-50.354
-45.471
-40.731
-36.184
-31.869
-27.8
-23.998
-20.475
-17.228
-14.255
-11.547
-9.087
-6.872
-4.906
-3.191
-1.731
-0.52
0.454
1.204
1.741
2.076
2.215
2.169
1.946
1.552
0.995
0.279
-0.593
-1.61
-2.761
-4.029
-5.398
-6.851
-8.371
-9.938
-11.533
-13.136
-14.728
-16.292
-17.807
-19.255
-20.617
-21.872
-22.999
-23.98
-24.793
-25.421
-25.844
-26.044
-26.005
-25.711
-25.149
-24.305
-23.169
-21.731
-19.981
-17.914
-15.524
-12.809
-9.769
-6.405
-2.72
1.278
5.581
10.178
15.057
20.202
25.595
31.219
37.052
43.071
49.254
55.573
62.004
68.519
75.088
81.684
88.276
94.836
101.333
107.737
114.021
120.154
126.109
131.859
137.378
142.642
147.626
152.309
156.672
160.697
164.367
167.67
170.593
173.129
175.271
177.014
178.357
179.302
179.853
180.015
179.798
179.213
178.274
176.997
175.4
173.503
171.327
168.895
166.232
163.361
160.31
157.104
153.771
150.338
146.833
143.283
139.714
136.154
132.627
129.158
125.77
122.486
119.327
116.311
113.456
110.778
108.291
106.008
103.938
102.092
100.474
99.089
97.94
97.027
96.349
95.902
95.68
95.679
95.889
96.301
96.906
97.691
98.645
99.754
101.007
102.388
103.884
105.483
107.17
108.933
110.759
112.638
114.558
116.511
118.486
120.477
122.477
124.48
126.481
128.478
130.467
132.448
134.419
136.381
138.335
140.284
142.232
144.181
146.136
148.103
150.086
152.093
154.128
156.2
158.313
160.473
162.686
164.958
167.292
169.691
172.156
174.687
177.285
179.947
182.67
185.448
188.274
191.141
194.04
196.961
199.891
202.819
205.731
208.613
211.452
214.234
216.942
219.561
222.075
224.467
226.725
228.832
230.773
232.533
234.099
235.458
236.601
237.517
238.197
238.634
238.823
238.766
238.47
237.939
237.184
236.215
235.044
233.69
232.169
230.496
228.683
226.743
224.691
222.547
220.335
218.08
215.805
213.531
211.282
209.083
206.954
204.914
202.988
201.202
199.591
198.205
197.094
196.306
195.89
195.888
196.326
197.206
198.519
200.239
202.351
204.863
207.774
211.051
214.633
218.437
222.376
226.41
230.47
234.411
238.158
241.73
245.273
249.176
253.793
259.195
265.407
272.481
280.234
288.411
296.515
303.446
308.238
310.608
310.584
308.517
305.221
301.577
298.87
299.216
304.77
317.011
336.639
363.566
396.212
431.709
467.046
499.24
527.566
553.254
575.19
588.492
583.411
549.735
484.719
394.377
291.991
191.429
100.538
21.717
-45.558
-101.201
-143.712
-171.304
-182.999
-179.801
-163.572
-137.147
-104.892
-71.213
-39.638
-12.642
8.716
23.929
32.219
33.743
29.922
22.876
14.905
7.487
1.15
-3.656
-6.247
-6.385
-4.39
-1.164
2.014
4.448
6.032
6.711
6.397
5.083
2.87
0.138
-2.508
-4.728
-6.449
-7.668
-8.447
-8.809
-8.74
-8.313
-7.67
-6.917
-6.114
-5.298
-4.475
-3.686
-3.01
-2.499
-2.191
-2.101
-2.222
-2.549
-3.077
-3.788
-4.657
-5.662
-6.785
-8.01
-9.328
-10.725
-12.183
-13.681
-15.196
-16.705
-18.189
-19.631
-21.016
-22.333
-23.574
-24.734
-25.813
-26.805
-27.707
-28.512
-29.216
-29.816
-30.315
-30.716
-31.02
-31.234
-31.359
-31.408
-31.4
-31.34
-31.225
-31.056
-30.832
-30.566
-30.298
-30.043
-29.793
-29.582
-29.479
-29.544
-29.839
-30.386
-31.132
-32.077
-33.309
-34.767
-36.203
-37.58
-38.989
-40.409
-42.139
-43.648
-43.311
-41.514
-39.748
-40.509
-48.465
-63.263
-80.236
-94.716
-100.062
-95.925
-88.59
-82.906
-84.115
-93.062
-105.043
-117.158
-127.413
-135.243
-142.407
-149.575
-156.77
-164.074
-171.123
-178.065
-184.481
-189.815
-194.989
-200.322
-207.814
-219.486
-233.536
-249.007
-262.01
-268.553
-269.592
-265.147
-259.976
-259.064
-263.128
-273.95
-287.486
-299.376
-308.327
-311.931
-312.418
-312.372
-312.269
-313.402
-315.029
-316.136
-316.902
-317.178
-317.058
-316.771
-316.172
-315.145
-313.725
-311.909
-309.709
-307.154
-304.265
-301.068
-297.604
-293.917
-290.02
-285.929
-281.667
-277.255
-272.715
-268.07
-263.34
-258.544
-253.704
-248.842
-243.978
-239.13
-234.318
-229.561
-224.876
-220.279
-215.785
-211.402
-207.148
-203.037
-199.071
-195.251
-191.579
-188.051
-184.679
-181.478
-178.439
-175.546
-172.829
-170.303
-167.984
-165.893
-164.003
-162.264
-160.694
-159.331
-158.05
-156.707
-155.377
-154.042
-152.668
-151.541
-149.856
-146.832
-143.566
-140.386
-139.317
-142.785
-148.091
-153.434
-156.135
-152.519
-145.826
-138.802
-133.328
-132.517
-134.137
-135.928
-137.388
-137.138
-135.978
-134.937
-133.82
-132.757
-131.68
-130.383
-129.004
-127.656
-126.304
-124.946
-123.599
-122.266
-120.947
-119.646
-118.348
-117.036
-115.724
-114.425
-113.14
-111.872
-110.622
-109.389
-108.18
-107.005
-105.872
-104.788
-103.764
-102.81
-101.935
-101.146
-100.448
-99.842
-99.327
-98.896
-98.55
-98.291
-98.126
-98.068
-98.124
-98.294
-98.572
-98.944
-99.383
-99.852
-100.31
-100.715
-101.036
-101.258
-101.379
-101.411
-101.37
-101.277
-101.136
-100.925
-100.619
-100.191
-99.629
-98.938
-98.147
-97.308
-96.486
-95.766
-95.216
-94.892
-94.812
-94.951
-95.257
-95.635
-96.032
-96.438
-96.85
-97.275
-97.69
-98.039
-98.255
-98.275
-97.986
-97.208
-95.735
-93.327
-89.807
-85.095
-79.123
-71.825
-63.176
-53.215
-42.095
-30.147
-17.717
-5.018
7.667
20.004
31.944
43.636
55.537
68.534
83.353
100.288
119.677
141.795
166.041
191.155
215.103
234.963
248.244
253.201
248.022
231.05
201.883
161.311
111.441
55.784
-2.312
-59.973
-113.875
-160.472
-197.237
-222.83
-237.164
-241.519
-237.463
-226.485
-210.809
-193.224
-175.857
-160.097
-146.68
-135.502
-126.222
-118.546
-111.687
-104.488
-96.312
-86.89
-76.194
-64.62
-52.587
-40.464
-28.821
-18.331
-9.389
-2.217
3.054
6.502
8.166
8.079
6.413
3.408
-0.698
-5.707
-11.462
-17.835
-24.634
-31.608
-38.566
-45.353
-51.867
-58.013
-63.641
-68.614
-72.84
-76.274
-78.924
-80.822
-82.005
-82.5
-82.377
-81.722
-80.651
-79.305
-77.777
-76.124
-74.39
-72.616
-70.868
-69.203
-67.643
-66.182
-64.808
-63.509
-62.282
-61.126
-60.004
-58.872
-57.691
-56.424
-55.053
-53.567
-51.943
-50.148
-48.164
-45.97
-43.511
-40.725
-37.578
-34.05
-30.159
-25.985
-21.575
-17.029
-12.654
-8.694
-5.145
-1.941
1.084
3.525
4.204
2.44
-1.001
-2.316
3.615
19.971
46.126
73.605
91.492
92.642
74.49
46.422
22.483
11.757
20.188
42.385
66.578
85.745
94.422
93.536
89.481
85.413
83.412
83.958
84.915
85.538
85.967
86.085
86.219
86.452
86.469
86.141
85.465
84.389
82.893
81.006
78.747
76.14
73.235
70.051
66.568
62.785
58.706
54.33
49.66
44.701
39.449
33.908
28.088
21.995
15.641
9.04
2.194
-4.888
-12.198
-19.732
-27.465
-35.371
-43.434
-51.632
-59.942
-68.345
-76.808
-85.298
-93.807
-102.325
-110.842
-119.356
-127.834
-136.247
-144.569
-152.77
-160.846
-168.798
-176.602
-184.237
-191.704
-198.992
-206.113
-213.085
-219.856
-226.377
-232.611
-238.509
-244.067
-249.284
-254.14
-258.626
-262.72
-266.391
-269.646
-272.489
-274.889
-276.829
-278.273
-279.175
-279.591
-279.578
-279.167
-278.412
-277.325
-275.915
-274.225
-272.291
-270.136
-267.794
-265.275
-262.587
-259.783
-256.907
-254.009
-251.151
-248.318
-245.491
-242.678
-239.87
-237.077
-234.316
-231.573
-228.834
-226.112
-223.413
-220.747
-218.128
-215.536
-212.954
-210.366
-207.749
-205.11
-202.456
-199.777
-197.071
-194.329
-191.538
-188.7
-185.813
-182.861
-179.828
-176.702
-173.469
-170.127
-166.676
-163.113
-159.433
-155.632
-151.703
-147.645
-143.457
-139.137
-134.686
-130.105
-125.401
-120.589
-115.686
-110.713
-105.688
-100.631
-95.562
-90.5
-85.468
-80.486
-75.569
-70.737
-66.017
-61.436
-57.034
-52.844
-48.881
-45.155
-41.662
-38.383
-35.305
-32.411
-29.668
-27.057
-24.574
-22.226
-20.051
-18.088
-16.352
-14.842
-13.529
-12.382
-11.399
-10.587
-9.951
-9.527
-9.341
-9.423
-9.845
-10.646
-11.807
-13.269
-14.896
-16.509
-17.985
-19.234
-20.19
-20.808
-21.013
-20.728
-19.917
-18.532
-16.525
-13.826
-10.3
-5.837
-0.427
5.877
12.919
20.478
28.407
36.629
45.07
53.681
62.399
71.164
80.019
89.083
98.46
108.197
118.253
128.57
139.231
150.455
162.456
175.342
188.997
203.124
217.475
231.909
246.203
259.928
272.705
284.492
295.709
307.148
319.481
333.162
348.636
366.312
386.264
406.788
424.535
437.428
444.004
444.262
440.544
429.891
407.201
370.113
313.623
239.056
153.974
62.444
-25.805
-100.175
-156.938
-191.344
-203.529
-198.993
-179.534
-146.547
-103.639
-54.921
-6.67
32.785
60.554
79.372
92.177
103.591
114.941
123.059
126.847
126.117
122.146
118.392
116.906
118.357
123.01
130.296
139.552
150.232
161.391
172.213
182.162
190.925
198.525
205.104
210.787
215.72
220.098
223.956
227.261
229.976
231.966
233.1
233.287
232.435
230.472
227.44
223.434
218.484
212.627
205.901
198.379
190.257
181.798
173.251
164.809
156.604
148.742
141.357
134.58
128.485
123.12
118.477
114.532
111.362
109.047
107.607
107.018
107.161
107.847
108.948
110.382
112.073
113.972
116.011
118.115
120.265
122.456
124.687
126.944
129.14
131.187
133.058
134.76
136.355
137.947
139.59
141.311
143.153
145.135
147.277
149.598
152.074
154.67
157.37
160.173
163.107
166.203
169.457
172.845
176.326
179.841
183.347
186.81
190.183
193.428
196.519
199.433
202.169
204.732
207.118
209.315
211.308
213.08
214.622
215.934
217.014
217.866
218.496
218.91
219.119
219.134
218.961
218.605
218.067
217.347
216.447
215.371
214.122
212.709
211.138
209.418
207.561
205.578
203.482
201.282
198.991
196.62
194.181
191.684
189.142
186.565
183.965
181.354
178.74
176.135
173.546
170.981
168.447
165.948
163.49
161.076
158.708
156.387
154.116
151.893
149.719
147.592
145.51
143.472
141.473
139.509
137.576
135.665
133.771
131.885
129.997
128.099
126.18
124.231
122.24
120.197
118.092
115.914
113.653
111.299
108.842
106.274
103.586
100.772
97.827
94.745
91.524
88.162
84.657
81.012
77.226
73.304
69.25
65.068
60.765
56.349
51.827
47.211
42.51
37.736
32.902
28.021
23.107
18.174
13.239
8.317
3.423
-1.426
-6.213
-10.923
-15.538
-20.044
-24.424
-28.664
-32.749
-36.666
-40.402
-43.947
-47.29
-50.423
-53.337
-56.027
-58.487
-60.715
-62.708
-64.466
-65.989
-67.28
-68.342
-69.179
-69.799
-70.206
-70.409
-70.418
-70.241
-69.89
-69.376
-68.711
-67.908
-66.98
-65.939
-64.8
-63.575
-62.279
-60.925
-59.527
-58.099
-56.655
-55.21
-53.776
-52.37
-51.002
-49.687
-48.436
-47.26
-46.17
-45.173
-44.278
-43.493
-42.824
-42.276
-41.853
-41.561
-41.405
-41.385
-41.504
-41.764
-42.162
-42.7
-43.376
-44.186
-45.126
-46.195
-47.389
-48.707
-50.144
-51.697
-53.356
-55.115
-56.963
-58.887
-60.875
-62.912
-64.981
-67.071
-69.169
-71.27
-73.372
-75.473
-77.563
-79.644
-81.711
-83.767
-85.822
-87.871
-89.903
-91.918
-93.912
-95.875
-97.808
-99.699
-101.52
-103.258
-104.888
-106.369
-107.683
-108.803
-109.693
-110.318
-110.63
-110.593
-110.213
-109.517
-108.545
-107.389
-106.125
-104.814
-103.578
-102.526
-101.692
-101.081
-100.555
-99.837
-98.702
-97.052
-94.856
-92.133
-89.118
-86.166
-83.872
-83.167
-84.916
-89.731
-97.782
-108.803
-121.923
-135.89
-149.174
-159.599
-164.83
-162.669
-151.538
-130.972
-101.643
-64.843
-22.367
22.833
67.084
106.183
135.949
153.497
157.041
145.135
117.194
74.312
18.853
-45.523
-114.31
-183.466
-248.896
-306.032
-350.985
-382.309
-400.793
-406.913
-401.179
-383.129
-351.096
-309.568
-266.951
-230.236
-207.627
-200.435
-202.503
-209.313
-214.866
-215.623
-214.107
-211.95
-210.27
-209.663
-208.233
-204.575
-198.989
-192.529
-186.375
-181.181
-176.939
-173.298
-170.131
-167.597
-165.557
-163.618
-161.498
-158.94
-155.858
-152.376
-148.526
-144.247
-139.556
-134.484
-129.063
-123.369
-117.448
-111.313
-105.006
-98.581
-92.094
-85.6
-79.13
-72.699
-66.318
-59.988
-53.71
-47.48
-41.288
-35.136
-29.033
-22.981
-16.987
-11.049
-5.165
0.665
6.447
12.189
17.892
23.559
29.186
34.767
40.294
45.758
51.149
56.457
61.678
66.804
71.831
76.754
81.569
86.268
90.849
95.302
99.621
103.797
107.821
111.686
115.384
118.909
122.253
125.412
128.379
131.152
133.724
136.092
138.252
140.201
141.935
143.45
144.745
145.817
146.664
147.287
147.684
147.856
147.803
147.528
147.03
146.313
145.377
144.226
142.863
141.29
139.512
137.533
135.357
132.989
130.437
127.703
124.796
121.72
118.48
115.083
111.535
107.839
104.002
100.029
95.925
91.695
87.346
82.882
78.309
73.632
68.857
63.99
59.037
54.002
48.893
43.717
38.478
33.186
27.846
22.467
17.057
11.625
6.178
0.727
-4.721
-10.154
-15.562
-20.936
-26.264
-31.533
-36.733
-41.85
-46.871
-51.783
-56.571
-61.222
-65.721
-70.053
-74.205
-78.162
-81.909
-85.433
-88.72
-91.758
-94.533
-97.035
-99.252
-101.175
-102.796
-104.107
-105.103
-105.778
-106.129
-106.155
-105.855
-105.231
-104.283
-103.017
-101.438
-99.552
-97.369
-94.897
-92.149
-89.136
-85.875
-82.379
-78.667
-74.757
-70.667
-66.419
-62.033
-57.531
-52.936
-48.269
-43.553
-38.81
-34.063
-29.332
-24.64
-20.006
-15.449
-10.987
-6.637
-2.414
1.668
5.598
9.366
12.963
16.384
19.622
22.675
25.543
28.225
30.723
33.042
35.188
37.168
38.993
40.674
42.226
43.664
45.004
46.266
47.468
48.631
49.774
50.917
52.083
53.292
54.566
55.924
57.388
58.979
60.716
62.618
64.702
66.983
69.476
72.191
75.139
78.328
81.763
85.449
89.388
93.582
98.032
102.734
107.683
112.873
118.293
123.93
129.769
135.791
141.974
148.296
154.732
161.259
167.853
174.489
181.142
187.789
194.407
200.972
207.457
213.832
220.066
226.128
231.988
237.614
242.979
248.052
252.81
257.234
261.311
265.027
268.366
271.305
273.819
275.886
277.496
278.645
279.332
279.562
279.353
278.74
277.782
276.539
275.056
273.353
271.437
269.314
266.989
264.475
261.782
258.9
255.825
252.562
249.117
245.498
241.68
237.585
233.089
228.06
222.395
216.045
208.987
201.206
192.728
183.596
173.911
163.83
153.467
142.904
132.214
121.46
110.771
100.37
90.537
81.59
73.844
67.583
63.121
60.677
60.322
62.005
65.358
69.882
75.246
81.045
86.886
92.789
98.754
105.1
113.012
123.483
137.25
154.352
173.405
192.969
212.612
234.147
259.723
287.948
313.099
323.885
309.804
269.377
208.035
136.794
65.499
-3.864
-71.349
-134.838
-187.161
-218.356
-222.732
-202.409
-168.415
-132.584
-102.157
-79.851
-62.581
-47.213
-33.513
-22.048
-14.001
-9.674
-7.657
-6.025
-3.643
-0.145
4.458
9.79
15.489
21.283
26.664
31.034
34.184
36.123
36.965
37.022
36.499
35.532
34.365
33.185
32.102
31.212
30.532
30.032
29.726
29.621
29.705
29.984
30.436
31.017
31.701
32.446
33.206
33.943
34.604
35.161
35.605
35.93
36.142
36.253
36.272
36.21
36.088
35.917
35.705
35.467
35.209
34.941
34.68
34.439
34.232
34.068
33.952
33.887
33.871
33.902
33.975
34.084
34.217
34.369
34.533
34.702
34.872
35.036
35.185
35.311
35.407
35.464
35.471
35.418
35.295
35.092
34.802
34.415
33.926
33.329
32.62
31.793
30.847
29.779
28.588
27.272
25.833
24.272
22.59
20.791
18.88
16.862
14.742
12.527
10.224
7.843
5.391
2.878
0.314
-2.292
-4.927
-7.581
-10.241
-12.895
-15.529
-18.132
-20.689
-23.187
-25.614
-27.958
-30.205
-32.345
-34.365
-36.256
-38.007
-39.609
-41.052
-42.33
-43.433
-44.356
-45.092
-45.636
-45.984
-46.131
-46.075
-45.813
-45.343
-44.664
-43.775
-42.676
-41.368
-39.854
-38.134
-36.213
-34.093
-31.779
-29.277
-26.591
-23.727
-20.693
-17.494
-14.14
-10.637
-6.993
-3.219
0.679
4.689
8.803
13.01
17.301
21.666
26.094
30.574
35.097
39.651
44.225
48.809
53.392
57.961
62.506
67.015
71.477
75.879
80.212
84.464
88.623
92.68
96.623
100.443
104.13
107.675
111.069
114.303
117.37
120.263
122.975
125.501
127.835
129.973
131.911
133.647
135.177
136.502
137.619
138.529
139.231
139.728
140.022
140.114
140.009
139.711
139.225
138.559
137.718
136.71
135.545
134.23
132.775
131.19
129.484
127.667
125.749
123.742
121.654
119.495
117.276
115.006
112.695
110.349
107.979
105.589
103.188
100.781
98.374
95.97
93.574
91.188
88.816
86.46
84.121
81.798
79.493
77.202
74.923
72.652
70.384
68.111
65.827
63.523
61.191
58.822
56.407
53.935
51.397
48.782
46.081
43.284
40.38
37.356
34.204
30.915
27.481
23.893
20.143
16.226
12.137
7.876
3.44
-1.173
-5.965
-10.936
-16.087
-21.41
-26.901
-32.556
-38.365
-44.315
-50.391
-56.575
-62.852
-69.205
-75.618
-82.079
-88.568
-95.067
-101.559
-108.031
-114.47
-120.87
-127.216
-133.477
-139.64
-145.688
-151.601
-157.356
-162.923
-168.264
-173.352
-178.176
-182.714
-186.946
-190.844
-194.378
-197.516
-200.221
-202.464
-204.233
-205.517
-206.345
-206.781
-206.921
-206.882
-206.758
-206.626
-206.568
-206.587
-206.627
-206.58
-206.179
-205.23
-203.797
-201.92
-199.635
-197.244
-195.012
-193.294
-192.807
-193.91
-196.375
-199.959
-204.24
-208.404
-211.855
-213.786
-212.889
-208.487
-200.482
-188.751
-173.513
-155.143
-133.682
-109.676
-84.168
-57.622
-30.599
-4.337
19.825
40.016
53.699
58.91
53.804
35.674
3.652
-40.561
-95.144
-157.179
-226.257
-305.768
-394.137
-485.252
-567.65
-624.527
-648.466
-640.624
-607.53
-563.86
-517.784
-471.707
-429.785
-390.607
-355.76
-330.581
-314.111
-306.261
-305.431
-306.516
-308.935
-312.135
-315.035
-318.104
-319.544
-317.824
-313.193
-306.046
-297.713
-289.747
-282.663
-276.716
-272.254
-269.312
-267.787
-267.454
-267.762
-268.125
-268.277
-268.125
-267.625
-266.831
-265.766
-264.445
-262.963
-261.435
-259.924
-258.453
-257.022
-255.619
-254.267
-253.016
-251.893
-250.906
-250.046
-249.285
-248.596
-247.953
-247.323
-246.66
-245.931
-245.106
-244.161
-243.077
-241.835
-240.409
-238.773
-236.899
-234.763
-232.345
-229.629
-226.603
-223.262
-219.605
-215.634
-211.357
-206.78
-201.91
-196.755
-191.325
-185.634
-179.696
-173.53
-167.154
-160.592
-153.869
-147.013
-140.053
-133.018
-125.936
-118.837
-111.752
-104.711
-97.743
-90.878
-84.144
-77.57
-71.183
-65.01
-59.077
-53.408
-48.025
-42.95
-38.202
-33.798
-29.752
-26.078
-22.785
-19.881
-17.373
-15.262
-13.551
-12.237
-11.315
-10.78
-10.624
-10.834
-11.399
-12.302
-13.527
-15.055
-16.866
-18.94
-21.255
-23.788
-26.516
-29.415
-32.463
-35.634
-38.906
-42.253
-45.653
-49.081
-52.515
-55.933
-59.315
-62.639
-65.888
-69.043
-72.089
-75.011
-77.797
-80.434
-82.913
-85.226
-87.367
-89.332
-91.117
-92.721
-94.147
-95.394
-96.468
-97.374
-98.117
-98.706
-99.147
-99.451
-99.627
-99.685
-99.637
-99.494
-99.267
-98.97
-98.613
-98.209
-97.77
-97.308
-96.834
-96.359
-95.894
-95.447
-95.027
-94.643
-94.3
-94.003
-93.758
-93.566
-93.429
-93.346
-93.315
-93.332
-93.393
-93.49
-93.615
-93.759
-93.909
-94.055
-94.181
-94.275
-94.32
-94.3
-94.198
-93.996
-93.676
-93.22
-92.608
-91.823
-90.844
-89.653
-88.233
-86.565
-84.631
-82.414
-79.9
-77.072
-73.919
-70.427
-66.588
-62.391
-57.832
-52.907
-47.613
-41.952
-35.927
-29.545
-22.814
-15.745
-8.353
-0.655
7.332
15.584
24.079
32.789
41.687
50.742
59.924
69.199
78.533
87.889
97.231
106.52
115.718
124.784
133.678
142.357
150.78
158.907
166.695
174.106
181.099
187.638
193.686
199.211
204.18
208.565
212.338
215.477
217.96
219.77
220.892
221.315
221.031
220.038
218.336
215.927
212.818
209.019
204.543
199.404
193.62
187.211
180.2
172.615
164.487
155.854
146.759
137.249
127.369
117.169
106.698
96.007
85.145
74.155
63.074
51.945
40.811
29.721
18.721
7.852
-2.85
-13.352
-23.621
-33.623
-43.325
-52.698
-61.718
-70.353
-78.561
-86.283
-93.449
-99.992
-105.87
-111.053
-115.509
-119.209
-122.112
-124.179
-125.418
-125.86
-125.55
-124.553
-122.931
-120.726
-118.042
-115.049
-111.839
-108.431
-104.712
-100.404
-95.296
-89.316
-82.448
-74.707
-66.314
-57.653
-49.346
-42.359
-37.559
-35.493
-36.322
-39.76
-44.961
-50.741
-55.668
-57.806
-55.11
-45.769
-28.527
-2.959
30.342
70.187
115.093
162.686
209.734
252.689
288.068
312.661
324.203
320.9
300.828
264.573
215.49
156.65
91.762
22.108
-54.894
-137.096
-218.134
-287.826
-331.875
-342.084
-317.961
-265.882
-197.534
-125.106
-59.724
-8.008
25.966
42.259
46.389
42.838
36.226
29.02
19.415
7.108
-7.034
-21.154
-31.888
-37.501
-37.866
-33.729
-26.631
-17.923
-8.802
-0.227
7.331
13.618
18.648
22.654
25.89
28.739
31.691
35.018
38.804
43.041
47.604
52.402
57.414
62.559
67.727
72.847
77.854
82.718
87.458
92.081
96.579
100.945
105.172
109.266
113.255
117.162
121
124.771
128.47
132.097
135.656
139.158
142.611
146.026
149.416
152.795
156.181
159.588
163.034
166.528
170.079
173.689
177.367
181.119
184.956
188.888
192.922
197.065
201.323
205.701
210.202
214.824
219.563
224.414
229.368
234.418
239.554
244.767
250.045
255.376
260.75
266.151
271.565
276.978
282.374
287.736
293.048
298.292
303.452
308.512
313.455
318.266
322.931
327.435
331.765
335.907
339.849
343.581
347.091
350.371
353.411
356.206
358.749
361.037
363.067
364.838
366.351
367.607
368.609
369.361
369.867
370.132
370.163
369.966
369.55
368.92
368.086
367.057
365.839
364.441
362.871
361.136
359.243
357.198
355.005
352.67
350.195
347.585
344.84
341.962
338.951
335.807
332.528
329.112
325.556
321.856
318.006
314
309.833
305.496
300.981
296.281
291.387
286.288
280.976
275.441
269.674
263.664
257.402
250.88
244.09
237.023
229.673
222.035
214.103
205.875
197.35
188.525
179.403
169.986
160.277
150.283
140.011
129.469
118.667
107.618
96.333
84.829
73.12
61.224
49.16
36.947
24.606
12.159
-0.37
-12.958
-25.578
-38.205
-50.812
-63.372
-75.857
-88.238
-100.488
-112.579
-124.481
-136.168
-147.612
-158.785
-169.663
-180.218
-190.427
-200.268
-209.717
-218.755
-227.364
-235.525
-243.225
-250.447
-257.179
-263.41
-269.13
-274.33
-279.004
-283.145
-286.75
-289.816
-292.343
-294.334
-295.791
-296.72
-297.128
-297.023
-296.415
-295.316
-293.739
-291.696
-289.204
-286.279
-282.941
-279.209
-275.107
-270.654
-265.874
-260.79
-255.424
-249.8
-243.94
-237.866
-231.598
-225.16
-218.575
-211.864
-205.052
-198.161
-191.214
-184.237
-177.251
-170.28
-163.343
-156.458
-149.641
-142.908
-136.273
-129.746
-123.336
-117.053
-110.908
-104.906
-99.058
-93.365
-87.829
-82.454
-77.24
-72.185
-67.286
-62.534
-57.922
-53.449
-49.118
-44.937
-40.915
-37.052
-33.345
-29.795
-26.397
-23.132
-19.964
-16.835
-13.681
-10.463
-7.154
-3.739
-0.211
3.45
7.266
11.243
15.388
19.711
24.221
28.949
33.928
39.124
44.419
49.646
54.595
59.097
63.09
66.505
69.242
71.319
72.811
73.881
74.903
76.178
77.712
79.516
81.586
83.659
85.672
87.593
88.854
88.994
88.005
85.814
82.743
79.829
77.693
76.78
78.419
83.956
94.325
110.731
133.749
162.529
196.389
235.052
275.975
316.002
353.461
385.07
409.588
427.402
433.624
424.048
396.134
348.739
287.912
219.438
145.554
67.461
-14.649
-94.821
-160.805
-201.504
-211.058
-192.617
-158.253
-120.005
-85.669
-58.552
-36.185
-16.115
1.454
15.123
22.261
21.918
15.726
6.465
-3.215
-11.88
-19.04
-24.328
-27.127
-27.184
-24.893
-21.285
-17.607
-14.515
-12.148
-10.52
-9.728
-9.827
-10.714
-12.063
-13.337
-14.204
-14.582
-14.475
-13.936
-12.982
-11.598
-9.815
-7.74
-5.468
-3.056
-0.549
2.042
4.684
7.308
9.865
12.313
14.624
16.787
18.797
20.649
22.342
23.877
25.246
26.445
27.471
28.319
28.987
29.473
29.778
29.912
29.883
29.703
29.379
28.913
28.308
27.566
26.688
25.675
24.529
23.254
21.858
20.346
18.728
17.011
15.203
13.312
11.345
9.306
7.202
5.037
2.817
0.547
-1.767
-4.118
-6.5
-8.906
-11.331
-13.768
-16.211
-18.655
-21.094
-23.525
-25.942
-28.342
-30.72
-33.073
-35.396
-37.686
-39.94
-42.153
-44.322
-46.444
-48.516
-50.532
-52.491
-54.388
-56.218
-57.978
-59.663
-61.268
-62.788
-64.217
-65.551
-66.785
-67.912
-68.928
-69.828
-70.608
-71.262
-71.788
-72.18
-72.435
-72.55
-72.523
-72.35
-72.029
-71.559
-70.939
-70.167
-69.243
-68.168
-66.942
-65.567
-64.044
-62.376
-60.568
-58.621
-56.543
-54.336
-52.009
-49.566
-47.015
-44.363
-41.619
-38.789
-35.883
-32.909
-29.875
-26.791
-23.666
-20.507
-17.323
-14.122
-10.912
-7.699
-4.492
-1.296
1.882
5.037
8.163
11.257
14.313
17.329
20.301
23.227
26.106
28.936
31.716
34.446
37.127
39.759
42.343
44.881
47.373
49.822
52.229
54.597
56.928
59.224
61.487
63.719
65.92
68.092
70.234
72.347
74.428
76.477
78.491
80.468
82.404
84.294
86.135
87.92
89.643
91.296
92.871
94.36
95.753
97.04
98.21
99.253
100.159
100.916
101.513
101.939
102.183
102.233
102.079
101.709
101.11
100.273
99.187
97.842
96.23
94.345
92.179
89.728
86.987
83.955
80.627
77.002
73.08
68.861
64.346
59.54
54.448
49.076
43.431
37.523
31.364
24.966
18.339
11.497
4.453
-2.778
-10.182
-17.744
-25.45
-33.283
-41.224
-49.254
-57.351
-65.493
-73.657
-81.821
-89.96
-98.051
-106.075
-114.012
-121.846
-129.561
-137.14
-144.564
-151.813
-158.869
-165.714
-172.328
-178.69
-184.78
-190.589
-196.111
-201.353
-206.313
-210.984
-215.352
-219.396
-223.088
-226.394
-229.271
-231.674
-233.569
-234.94
-235.789
-236.138
-236.004
-235.404
-234.34
-232.802
-230.786
-228.296
-225.351
-221.988
-218.288
-214.37
-210.375
-206.464
-202.768
-199.376
-196.353
-193.721
-191.472
-189.57
-187.979
-186.674
-185.657
-184.947
-184.521
-184.306
-184.138
-183.775
-182.955
-181.401
-178.806
-174.828
-169.258
-162.045
-153.305
-143.425
-132.82
-121.781
-110.685
-99.947
-89.618
-79.551
-69.462
-58.37
-45.16
-29.096
-9.316
13.884
38.42
62.384
84.378
104.525
124.391
143.017
155.504
152.871
125.874
70.354
-12.202
-113.359
-221.735
-326.599
-416.492
-483.777
-525.516
-542.964
-543.277
-533.536
-517.685
-497.087
-470.183
-436.919
-399.924
-362.776
-329.727
-303.474
-284.977
-274.347
-270.662
-272.423
-277.983
-285.466
-292.954
-298.983
-302.363
-302.355
-298.872
-292.295
-283.295
-272.775
-261.741
-250.862
-240.631
-231.333
-222.908
-215.211
-208.011
-200.96
-193.696
-186.028
-177.872
-169.233
-160.239
-150.987
-141.574
-132.131
-122.778
-113.614
-104.713
-96.132
-87.917
-80.113
-72.764
-65.904
-59.561
-53.749
-48.475
-43.738
-39.526
-35.834
-32.655
-29.982
-27.812
-26.134
-24.932
-24.188
-23.876
-23.971
-24.449
-25.279
-26.432
-27.879
-29.59
-31.541
-33.707
-36.06
-38.567
-41.197
-43.916
-46.691
-49.493
-52.289
-55.05
-57.747
-60.356
-62.856
-65.227
-67.449
-69.506
-71.383
-73.067
-74.546
-75.813
-76.861
-77.686
-78.287
-78.664
-78.822
-78.767
-78.505
-78.047
-77.403
-76.587
-75.612
-74.495
-73.251
-71.899
-70.456
-68.942
-67.377
-65.781
-64.173
-62.573
-61
-59.472
-58.008
-56.622
-55.331
-54.149
-53.086
-52.156
-51.367
-50.728
-50.244
-49.921
-49.762
-49.768
-49.938
-50.27
-50.76
-51.403
-52.191
-53.116
-54.168
-55.335
-56.606
-57.968
-59.405
-60.904
-62.448
-64.023
-65.611
-67.197
-68.764
-70.296
-71.778
-73.193
-74.529
-75.77
-76.905
-77.921
-78.806
-79.552
-80.148
-80.586
-80.86
-80.965
-80.895
-80.649
-80.225
-79.621
-78.84
-77.882
-76.751
-75.452
-73.988
-72.367
-70.594
-68.678
-66.627
-64.448
-62.153
-59.749
-57.247
-54.655
-51.983
-49.24
-46.434
-43.572
-40.663
-37.712
-34.726
-31.71
-28.669
-25.606
-22.526
-19.43
-16.32
-13.198
-10.063
-6.914
-3.752
-0.573
2.625
5.844
9.087
12.359
15.663
19.005
22.391
25.824
29.313
32.863
36.48
40.171
43.94
47.794
51.737
55.773
59.907
64.14
68.475
72.914
77.459
82.109
86.866
91.726
96.69
101.755
106.919
112.177
117.528
122.965
128.486
134.086
139.762
145.509
151.323
157.199
163.131
169.112
175.136
181.196
187.282
193.388
199.503
205.621
211.734
217.835
223.917
229.972
235.992
241.972
247.903
253.778
259.589
265.325
270.982
276.553
282.031
287.411
292.684
297.846
302.892
307.815
312.607
317.26
321.764
326.116
330.31
334.342
338.207
341.902
345.424
348.771
351.944
354.94
357.756
360.384
362.816
365.048
367.081
368.907
370.512
371.876
372.974
373.795
374.347
374.633
374.657
374.424
373.947
373.247
372.363
371.312
370.099
368.727
367.197
365.539
363.812
362.082
360.436
358.921
357.531
356.251
355.037
353.808
352.484
350.944
349.018
346.689
344.081
341.365
338.794
336.544
334.637
333.076
331.865
330.735
329.193
326.693
322.6
316.503
308.361
298.269
286.393
273.4
260.394
248.538
239.127
233.254
231.643
235.061
244.334
259.529
279.979
304.831
332.907
363.051
394.037
423.762
449.465
468.907
480.379
482.439
473.961
453.611
420.588
375.94
322.082
261.829
198.226
134.189
72.948
18.795
-24.291
-54.143
-70.069
-72.53
-62.625
-41.309
-10.54
25.985
64.177
100.711
133.328
161.004
183.047
198.38
206.853
209.69
208.819
206.321
203.504
200.691
198.14
196.431
195.75
195.806
195.824
194.648
191.696
186.986
180.603
172.672
163.389
152.941
141.75
130.461
119.474
109.035
99.364
90.548
82.689
75.899
70.164
65.414
61.593
58.592
56.29
54.56
53.231
52.183
51.353
50.673
50.107
49.61
49.116
48.605
48.073
47.508
46.903
46.251
45.539
44.795
44.08
43.455
42.994
42.745
42.731
42.974
43.488
44.277
45.342
46.665
48.22
49.989
51.965
54.137
56.502
59.043
61.736
64.559
67.486
70.493
73.558
76.659
79.773
82.882
85.971
89.029
92.044
95.006
97.898
100.704
103.409
105.996
108.448
110.748
112.88
114.828
116.58
118.124
119.451
120.55
121.414
122.034
122.405
122.521
122.376
121.967
121.289
120.341
119.122
117.632
115.873
113.847
111.558
109.011
106.211
103.165
99.88
96.363
92.623
88.669
84.512
80.163
75.634
70.937
66.086
61.096
55.981
50.756
45.435
40.033
34.565
29.046
23.489
17.91
12.323
6.743
1.183
-4.341
-9.816
-15.228
-20.564
-25.81
-30.954
-35.984
-40.889
-45.656
-50.275
-54.736
-59.029
-63.145
-67.075
-70.813
-74.35
-77.682
-80.803
-83.71
-86.398
-88.867
-91.114
-93.139
-94.944
-96.529
-97.896
-99.05
-99.994
-100.733
-101.274
-101.624
-101.792
-101.785
-101.614
-101.29
-100.825
-100.23
-99.519
-98.704
-97.801
-96.824
-95.788
-94.709
-93.602
-92.484
-91.371
-90.278
-89.221
-88.215
-87.275
-86.413
-85.643
-84.978
-84.428
-84.004
-83.714
-83.567
-83.57
-83.728
-84.045
-84.525
-85.167
-85.972
-86.936
-88.057
-89.33
-90.747
-92.301
-93.981
-95.779
-97.682
-99.676
-101.746
-103.877
-106.051
-108.249
-110.454
-112.644
-114.799
-116.899
-118.923
-120.853
-122.669
-124.352
-125.884
-127.247
-128.425
-129.402
-130.165
-130.699
-130.991
-131.031
-130.812
-130.328
-129.574
-128.549
-127.252
-125.684
-123.849
-121.753
-119.4
-116.799
-113.957
-110.889
-107.608
-104.132
-100.479
-96.67
-92.728
-88.679
-84.551
-80.368
-76.154
-71.933
-67.731
-63.571
-59.477
-55.47
-51.567
-47.788
-44.156
-40.69
-37.411
-34.332
-31.466
-28.826
-26.43
-24.29
-22.42
-20.818
-19.488
-18.433
-17.665
-17.204
-17.061
-17.234
-17.719
-18.512
-19.61
-21
-22.646
-24.479
-26.421
-28.413
-30.416
-32.417
-34.39
-36.306
-38.132
-39.832
-41.405
-42.844
-44.108
-45.155
-45.964
-46.56
-47.063
-47.669
-48.543
-49.863
-51.792
-54.361
-57.525
-61.126
-64.845
-68.445
-71.777
-74.621
-76.876
-78.73
-80.566
-83.104
-87.213
-93.172
-100.849
-110.149
-120.717
-131.933
-142.891
-151.853
-156.852
-156.885
-151.676
-141.097
-125.272
-104.134
-77.802
-47.687
-15.409
18.215
52.641
87.596
121.624
151.079
173.882
189.521
198.593
203.935
202.602
188.216
156.771
102.698
28.106
-59.975
-159.157
-262.062
-361.385
-450.42
-516.021
-551.209
-555.996
-535.007
-499.657
-461.121
-427.619
-403.892
-391.882
-389.511
-391.561
-394.388
-394.341
-390.724
-386.601
-383.295
-381.534
-381.244
-380.637
-379.119
-377.071
-374.849
-373.118
-372.334
-372.571
-373.816
-375.981
-378.856
-382.141
-385.595
-389.02
-392.187
-394.929
-397.144
-398.747
-399.73
-400.131
-399.953
-399.206
-397.924
-396.142
-393.913
-391.299
-388.346
-385.104
-381.634
-377.997
-374.26
-370.47
-366.648
-362.805
-358.944
-355.061
-351.155
-347.216
-343.225
-339.169
-335.035
-330.817
-326.509
-322.104
-317.589
-312.951
-308.18
-303.27
-298.222
-293.035
-287.711
-282.255
-276.672
-270.973
-265.17
-259.27
-253.282
-247.212
-241.068
-234.858
-228.594
-222.283
-215.936
-209.562
-203.174
-196.783
-190.401
-184.04
-177.709
-171.418
-165.176
-158.991
-152.871
-146.822
-140.848
-134.956
-129.149
-123.431
-117.804
-112.27
-106.829
-101.48
-96.223
-91.055
-85.972
-80.971
-76.046
-71.192
-66.403
-61.672
-56.99
-52.351
-47.745
-43.163
-38.596
-34.034
-29.466
-24.881
-20.27
-15.622
-10.926
-6.174
-1.355
3.538
8.515
13.582
18.747
24.015
29.394
34.886
40.498
46.232
52.092
58.078
64.192
70.433
76.801
83.295
89.91
96.644
103.491
110.446
117.503
124.654
131.891
139.204
146.584
154.019
161.497
169.007
176.535
184.067
191.589
199.087
206.546
213.95
221.283
228.53
235.673
242.697
249.583
256.315
262.876
269.249
275.416
281.36
287.064
292.513
297.689
302.577
307.162
311.429
315.364
318.953
322.185
325.049
327.534
329.631
331.332
332.632
333.524
334.005
334.07
333.719
332.952
331.769
330.172
328.165
325.753
322.943
319.742
316.159
312.204
307.889
303.226
298.229
292.914
287.295
281.39
275.217
268.796
262.146
255.288
248.244
241.035
233.683
226.21
218.638
210.99
203.288
195.552
187.806
180.07
172.365
164.711
157.129
149.637
142.253
134.995
127.879
120.92
114.133
107.531
101.127
94.933
88.961
83.221
77.721
72.469
67.472
62.734
58.259
54.046
50.096
46.407
42.975
39.797
36.868
34.183
31.733
29.511
27.51
25.718
24.126
22.721
21.492
20.425
19.509
18.728
18.071
17.525
17.078
16.715
16.426
16.197
16.012
15.859
15.721
15.585
15.436
15.263
15.053
14.796
14.486
14.115
13.682
13.185
12.62
11.986
11.283
10.512
9.672
8.763
7.782
6.727
5.598
4.398
3.131
1.801
0.414
-1.02
-2.49
-3.979
-5.473
-6.959
-8.43
-9.875
-11.279
-12.617
-13.854
-14.955
-15.893
-16.64
-17.171
-17.469
-17.532
-17.378
-17.061
-16.639
-16.168
-15.702
-15.265
-14.867
-14.529
-14.271
-14.136
-14.173
-14.402
-14.829
-15.474
-16.326
-17.347
-18.484
-19.545
-20.263
-20.476
-20.103
-19.212
-18.05
-16.806
-15.534
-14.421
-13.778
-13.607
-13.626
-13.162
-11.09
-6.584
0.656
11
24.858
41.858
60.906
80.224
97.298
109.966
116.684
115.46
103.892
81.714
50.837
13.534
-27.14
-71.534
-124.146
-185.328
-251.968
-316.12
-362.733
-381.891
-369.158
-326.79
-268.715
-209.531
-163.028
-137.988
-131.945
-138.746
-149.875
-158.318
-163.04
-165.077
-166.8
-170.48
-176.191
-182.773
-188.349
-191.439
-191.77
-190.096
-187.818
-185.677
-183.682
-181.694
-179.552
-177.405
-175.507
-173.761
-171.818
-169.401
-166.396
-162.846
-158.888
-154.55
-149.791
-144.624
-139.123
-133.41
-127.618
-121.842
-116.109
-110.433
-104.831
-99.321
-93.924
-88.651
-83.492
-78.432
-73.464
-68.593
-63.836
-59.212
-54.734
-50.401
-46.206
-42.141
-38.201
-34.385
-30.688
-27.102
-23.617
-20.224
-16.924
-13.716
-10.6
-7.567
-4.607
-1.71
1.137
3.943
6.719
9.475
12.223
14.97
17.722
20.481
23.249
26.029
28.819
31.619
34.427
37.241
40.056
42.867
45.668
48.451
51.207
53.926
56.595
59.203
61.735
64.178
66.515
68.734
70.819
72.756
74.531
76.129
77.536
78.741
79.73
80.492
81.018
81.297
81.324
81.092
80.601
79.848
78.835
77.566
76.047
74.285
72.291
70.076
67.656
65.047
62.267
59.336
56.276
53.111
49.866
46.567
43.24
39.914
36.616
33.375
30.218
27.174
24.27
21.532
18.985
16.655
14.564
12.734
11.184
9.931
8.992
8.379
8.102
8.171
8.59
9.362
10.486
11.961
13.779
15.932
18.408
21.195
24.273
27.625
31.228
35.058
39.09
43.296
47.646
52.112
56.66
61.26
65.878
70.483
75.04
79.519
83.886
88.11
92.161
96.01
99.627
102.988
106.067
108.841
111.29
113.395
115.14
116.511
117.497
118.09
118.283
118.073
117.461
116.447
115.039
113.243
111.07
108.533
105.648
102.431
98.904
95.086
91.001
86.673
82.127
77.392
72.494
67.462
62.328
57.119
51.868
46.604
41.359
36.162
31.043
26.031
21.155
16.44
11.915
7.603
3.528
-0.287
-3.822
-7.059
-9.981
-12.574
-14.825
-16.724
-18.263
-19.437
-20.241
-20.674
-20.734
-20.423
-19.745
-18.704
-17.308
-15.564
-13.484
-11.079
-8.364
-5.357
-2.073
1.466
5.243
9.234
13.418
17.77
22.268
26.887
31.601
36.386
41.214
46.06
50.897
55.702
60.448
65.113
69.671
74.103
78.386
82.503
86.433
90.158
93.661
96.924
99.933
102.673
105.131
107.295
109.156
110.712
111.962
112.908
113.552
113.896
113.946
113.71
113.197
112.414
111.367
110.058
108.499
106.703
104.687
102.47
100.063
97.473
94.711
91.796
88.749
85.592
82.34
79.009
75.627
72.23
68.868
65.591
62.433
59.422
56.586
53.938
51.501
49.302
47.338
45.608
44.079
42.684
41.381
40.125
38.864
37.584
36.21
34.592
32.736
30.745
28.719
26.861
25.211
23.559
21.934
20.579
19.507
18.673
17.921
16.74
15.083
13.443
11.963
10.623
9.59
8.879
8.897
10.822
15.35
22.709
33.423
47.728
65.677
87.637
113.111
140.18
166.748
190.492
208.581
218.632
218.262
204.488
176.227
135.139
83.382
23.06
-45.828
-125.001
-212.636
-300.973
-376.826
-427.337
-446.287
-436.043
-406.779
-368.986
-329.067
-289.825
-250.134
-209.571
-170.333
-135.454
-108.692
-92.175
-85.607
-87.181
-94.22
-104.142
-114.653
-123.944
-130.505
-133.3
-132.059
-127.225
-119.731
-110.757
-101.554
-92.942
-85.5
-79.574
-75.12
-71.962
-69.786
-68.124
-66.506
-64.668
-62.488
-59.945
-57.134
-54.117
-50.951
-47.736
-44.564
-41.498
-38.571
-35.795
-33.176
-30.72
-28.435
-26.324
-24.382
-22.591
-20.93
-19.371
-17.881
-16.438
-15.023
-13.622
-12.227
-10.829
-9.414
-7.971
-6.484
-4.943
-3.338
-1.661
0.098
1.942
3.869
5.873
7.942
10.067
12.242
14.459
16.707
18.977
21.255
23.526
25.779
27.995
30.156
32.241
34.23
36.101
37.835
39.413
40.816
42.026
43.027
43.802
44.339
44.624
44.644
44.391
43.854
43.028
41.908
40.491
38.777
36.768
34.466
31.878
29.012
25.877
22.486
18.853
14.993
10.924
6.666
2.241
-2.329
-7.02
-11.807
-16.662
-21.558
-26.468
-31.364
-36.217
-41
-45.685
-50.246
-54.655
-58.888
-62.92
-66.73
-70.295
-73.596
-76.615
-79.337
-81.747
-83.834
-85.588
-87.002
-88.07
-88.79
-89.162
-89.187
-88.87
-88.217
-87.237
-85.94
-84.34
-82.451
-80.29
-77.874
-75.222
-72.356
-69.296
-66.065
-62.686
-59.182
-55.576
-51.894
-48.159
-44.395
-40.624
-36.87
-33.155
-29.499
-25.922
-22.442
-19.077
-15.842
-12.753
-9.821
-7.058
-4.473
-2.073
0.135
2.148
3.964
5.582
7.004
8.233
9.273
10.131
10.813
11.328
11.684
11.891
11.96
11.902
11.729
11.455
11.091
10.65
10.145
9.59
8.995
8.373
7.736
7.092
6.453
5.827
5.222
4.647
4.107
3.608
3.154
2.749
2.393
2.089
1.835
1.629
1.468
1.348
1.266
1.217
1.194
1.194
1.209
1.234
1.262
1.287
1.301
1.297
1.266
1.202
1.097
0.946
0.742
0.48
0.155
-0.236
-0.697
-1.23
-1.837
-2.523
-3.287
-4.13
-5.053
-6.053
-7.129
-8.277
-9.493
-10.771
-12.104
-13.486
-14.912
-16.376
-17.872
-19.395
-20.942
-22.509
-24.091
-25.682
-27.276
-28.864
-30.439
-31.991
-33.507
-34.977
-36.391
-37.74
-39.022
-40.235
-41.373
-42.435
-43.413
-44.305
-45.113
-45.829
-46.443
-46.945
-47.328
-47.597
-47.769
-47.855
-47.856
-47.765
-47.568
-47.25
-46.792
-46.162
-45.301
-44.15
-42.65
-40.771
-38.527
-35.924
-32.968
-29.651
-25.943
-21.849
-17.418
-12.691
-7.703
-2.506
2.841
8.219
13.42
18.254
22.56
26.207
29.152
31.361
32.797
33.453
33.354
32.518
31.027
29.076
26.81
24.429
22.22
20.365
19.12
18.983
20.432
23.548
28.339
34.547
41.63
49.678
58.898
68.933
79.407
90.351
101.891
114.961
131.074
150.511
173.116
198.993
227.895
259.458
293.026
326.247
355.669
378.638
392.661
395.613
386.069
362.271
323.055
269.518
204.411
130.988
53.207
-25.292
-101.231
-170.346
-228.538
-273.531
-304.537
-321.773
-326.583
-320.437
-304.76
-282.384
-256.883
-230.914
-206.531
-185.441
-168.384
-155.941
-148.952
-147.049
-148.848
-153.332
-159.3
-165.319
-170.752
-174.98
-177.005
-176.613
-174.136
-169.764
-164.118
-158.046
-151.799
-145.625
-139.91
-134.622
-129.663
-124.979
-120.228
-115.032
-109.267
-102.842
-95.71
-87.974
-79.683
-70.887
-61.719
-52.299
-42.723
-33.077
-23.416
-13.783
-4.226
5.216
14.507
23.618
32.535
41.246
49.749
58.053
66.156
74.058
81.761
89.261
96.558
103.661
110.572
117.3
123.852
130.231
136.447
142.507
148.418
154.182
159.799
165.265
170.581
175.749
180.773
185.656
190.397
194.997
199.458
203.778
207.957
211.99
215.869
219.587
223.136
226.507
229.692
232.682
235.467
238.038
240.384
242.496
244.364
245.978
247.328
248.403
249.195
249.696
249.898
249.795
249.38
248.65
247.602
246.233
244.545
242.536
240.211
237.571
234.624
231.375
227.834
224.011
219.918
215.568
210.978
206.164
201.145
195.94
190.569
185.054
179.416
173.678
167.862
161.993
156.093
150.185
144.294
138.44
132.647
126.937
121.329
115.844
110.5
105.315
100.304
95.483
90.866
86.463
82.285
78.341
74.639
71.183
67.977
65.023
62.323
59.873
57.671
55.712
53.991
52.499
51.228
50.168
49.306
48.631
48.128
47.783
47.581
47.505
47.539
47.665
47.867
48.126
48.426
48.749
49.076
49.392
49.679
49.921
50.101
50.204
50.217
50.124
49.914
49.574
49.094
48.464
47.675
46.721
45.594
44.29
42.805
41.136
39.281
37.241
35.018
32.615
30.035
27.284
24.37
21.3
18.084
14.733
11.256
7.668
3.981
0.209
-3.631
-7.524
-11.451
-15.396
-19.339
-23.262
-27.146
-30.973
-34.723
-38.379
-41.921
-45.333
-48.595
-51.689
-54.6
-57.308
-59.799
-62.055
-64.063
-65.81
-67.284
-68.474
-69.373
-69.973
-70.268
-70.253
-69.925
-69.282
-68.324
-67.052
-65.467
-63.577
-61.387
-58.91
-56.155
-53.138
-49.872
-46.373
-42.659
-38.749
-34.66
-30.411
-26.024
-21.521
-16.926
-12.265
-7.564
-2.853
1.838
6.481
11.046
15.506
19.834
24.007
28.001
31.793
35.365
38.695
41.764
44.552
47.04
49.208
51.043
52.53
53.655
54.41
54.781
54.765
54.36
53.568
52.386
50.809
48.825
46.426
43.619
40.411
36.811
32.835
28.498
23.839
18.927
13.834
8.631
3.37
-1.926
-7.234
-12.519
-17.748
-22.888
-27.916
-32.844
-37.657
-42.303
-46.743
-50.962
-55.021
-59.083
-63.331
-67.902
-72.911
-78.448
-84.502
-91.012
-97.804
-104.566
-110.997
-116.855
-121.992
-126.354
-130.174
-133.888
-137.986
-142.998
-149.168
-156.51
-164.871
-173.98
-183.16
-191.179
-196.607
-198.002
-194.471
-185.596
-171.136
-150.821
-124.55
-93.083
-57.795
-20.353
17.922
56.148
93.276
127.619
156.915
179.327
193.738
199.658
196.288
182.299
157.334
122.229
79.851
34.631
-11.045
-56.025
-99.762
-143.301
-184.237
-217.951
-240.075
-243.607
-225.637
-188.812
-138.546
-86.827
-45.957
-22.446
-18.262
-27.816
-40.261
-47.78
-46.425
-36.583
-23.601
-11.593
-1.843
5.669
12.642
20.041
27.33
33.839
39.117
43.117
46.189
48.762
51.124
53.353
55.477
57.674
59.96
62.29
64.928
67.075
67.968
68.677
69.518
72.471
79.91
89.196
98.53
105.241
105.672
102.921
99.64
97.658
100.008
104.515
108.981
112.922
115.02
116.084
117.134
117.992
118.798
119.496
119.91
120.204
120.514
120.836
121.193
121.624
122.154
122.798
123.572
124.475
125.499
126.664
127.996
129.505
131.208
133.118
135.246
137.604
140.206
143.054
146.153
149.5
153.092
156.923
160.984
165.264
169.748
174.422
179.268
184.264
189.39
194.62
199.927
205.283
210.657
216.015
221.325
226.548
231.65
236.592
241.337
245.848
250.085
254.011
257.588
260.778
263.547
265.858
267.678
268.974
269.719
269.883
269.443
268.379
266.672
264.31
261.281
257.579
253.2
248.144
242.417
236.025
228.979
221.296
212.993
204.094
194.625
184.614
174.094
163.101
151.671
139.847
127.669
115.182
102.433
89.469
76.339
63.093
49.781
36.454
23.161
9.953
-3.123
-16.019
-28.691
-41.095
-53.19
-64.94
-76.307
-87.261
-97.772
-107.814
-117.366
-126.408
-134.925
-142.906
-150.344
-157.235
-163.577
-169.375
-174.635
-179.365
-183.58
-187.293
-190.524
-193.292
-195.622
-197.537
-199.066
-200.236
-201.079
-201.624
-201.903
-201.949
-201.793
-201.468
-201.004
-200.43
-199.777
-199.071
-198.338
-197.604
-196.889
-196.214
-195.598
-195.056
-194.603
-194.249
-194.003
-193.873
-193.862
-193.973
-194.208
-194.563
-195.036
-195.623
-196.315
-197.107
-197.987
-198.945
-199.971
-201.052
-202.174
-203.325
-204.491
-205.659
-206.815
-207.948
-209.045
-210.095
-211.089
-212.016
-212.87
-213.645
-214.336
-214.938
-215.448
-215.865
-216.194
-216.437
-216.598
-216.682
-216.69
-216.629
-216.516
-216.355
-216.139
-215.866
-215.534
-215.153
-214.761
-214.374
-213.979
-213.605
-213.321
-213.183
-213.251
-213.542
-213.996
-214.597
-215.433
-216.439
-217.341
-218.079
-218.742
-219.297
-220.033
-220.433
-218.749
-215.286
-211.67
-210.473
-216.643
-230.066
-245.722
-258.673
-261.897
-254.677
-243.685
-234.092
-231.401
-236.77
-245.202
-253.559
-259.776
-263.132
-265.643
-268.273
-270.936
-273.704
-276.274
-278.557
-280.83
-283.188
-285.591
-288.047
-290.571
-293.152
-295.769
-298.392
-300.97
-303.472
-305.899
-308.234
-310.449
-312.517
-314.411
-316.084
-317.478
-318.541
-319.24
-319.591
-319.656
-319.512
-319.229
-318.881
-318.555
-318.275
-317.995
-317.595
-316.877
-315.655
-313.86
-311.513
-308.673
-305.694
-303.17
-301.702
-301.957
-304.449
-309.381
-316.81
-326.722
-338.432
-350.653
-362.076
-371.327
-377.214
-378.821
-375.195
-365.327
-349.017
-327.144
-300.776
-271.05
-239.344
-207.382
-177.44
-152.305
-134.277
-124.602
-124.598
-135.812
-159.028
-193.084
-234.838
-280.882
-328.81
-379.245
-433.521
-489.114
-539.942
-576.854
-591.912
-581.954
-549.696
-503.066
-448.964
-395.376
-349.358
-313.22
-291.353
-283.972
-285.802
-293.392
-300.747
-304.212
-306.017
-307.409
-309.653
-312.989
-314.728
-313.558
-309.841
-304.489
-299.022
-294.123
-289.576
-285.258
-281.335
-277.97
-275.183
-272.728
-270.102
-267.006
-263.414
-259.359
-254.873
-249.935
-244.481
-238.508
-232.12
-225.422
-218.482
-211.346
-203.996
-196.41
-188.588
-180.522
-172.211
-163.648
-154.807
-145.661
-136.203
-126.437
-116.381
-106.058
-95.482
-84.656
-73.59
-62.292
-50.782
-39.081
-27.209
-15.187
-3.036
9.215
21.531
33.872
46.202
58.489
70.702
82.809
94.78
106.583
118.187
129.563
140.683
151.517
162.035
172.207
182.004
191.4
200.372
208.899
216.962
224.545
231.634
238.219
244.292
249.848
254.884
259.397
263.391
266.868
269.835
272.301
274.277
275.778
276.819
277.419
277.597
277.375
276.775
275.822
274.54
272.954
271.092
268.98
266.648
264.122
261.432
258.608
255.677
252.668
249.607
246.521
243.436
240.375
237.36
234.414
231.555
228.803
226.173
223.682
221.342
219.164
217.159
215.333
213.693
212.242
210.983
209.916
209.04
208.353
207.849
207.524
207.37
207.378
207.539
207.842
208.275
208.824
209.478
210.221
211.039
211.92
212.848
213.81
214.793
215.782
216.766
217.732
218.67
219.567
220.415
221.206
221.931
222.585
223.163
223.662
224.078
224.411
224.662
224.831
224.921
224.937
224.883
224.768
224.598
224.383
224.135
223.866
223.587
223.314
223.061
222.842
222.673
222.569
222.546
222.618
222.8
223.107
223.552
224.151
224.914
225.855
226.984
228.31
229.842
231.587
233.549
235.734
238.143
240.777
243.635
246.717
250.019
253.534
257.257
261.178
265.286
269.569
274.011
278.596
283.305
288.118
293.013
297.97
302.964
307.973
312.971
317.935
322.839
327.66
332.371
336.947
341.362
345.592
349.613
353.402
356.936
360.194
363.158
365.809
368.132
370.109
371.727
372.971
373.827
374.286
374.339
373.978
373.198
371.997
370.374
368.335
365.884
363.028
359.774
356.131
352.11
347.723
342.982
337.898
332.485
326.759
320.737
314.441
307.89
301.108
294.117
286.941
279.608
272.142
264.566
256.903
249.175
241.407
233.626
225.854
218.116
210.436
202.837
195.343
187.982
180.772
173.723
166.844
160.132
153.589
147.225
141.042
135.045
129.25
123.681
118.389
113.432
108.845
104.654
100.873
97.497
94.54
92.013
89.902
88.22
86.977
86.191
85.915
86.171
86.917
88.068
89.458
90.892
92.244
93.366
94.092
94.399
94.323
94.03
93.879
94.103
94.805
96.156
98.22
100.798
103.519
105.732
106.661
105.897
103.245
98.438
91.436
82.724
73.4
65.202
59.921
58.832
62.944
73.489
91.606
117.672
151.019
189.823
231.965
275.775
319.504
360.552
395.753
422.222
437.755
441.349
432.348
409.659
372.807
322.845
262.232
194.228
122.341
49.729
-20.05
-82.561
-133.798
-171.111
-193.505
-201.263
-195.218
-176.741
-148.409
-114.134
-78.267
-44.614
-15.615
7.218
22.53
29.647
29.032
22.277
11.951
0.658
-10.032
-19.125
-25.58
-28.802
-28.722
-25.756
-21.122
-16.237
-11.83
-8.247
-5.779
-4.451
-4.212
-4.989
-6.344
-7.7
-8.779
-9.455
-9.696
-9.609
-9.235
-8.559
-7.657
-6.639
-5.576
-4.537
-3.557
-2.638
-1.824
-1.16
-0.67
-0.386
-0.315
-0.447
-0.772
-1.274
-1.93
-2.731
-3.671
-4.738
-5.928
-7.229
-8.629
-10.112
-11.66
-13.25
-14.863
-16.478
-18.077
-19.648
-21.181
-22.669
-24.108
-25.491
-26.807
-28.047
-29.202
-30.263
-31.221
-32.069
-32.801
-33.412
-33.903
-34.274
-34.527
-34.666
-34.694
-34.616
-34.437
-34.163
-33.801
-33.358
-32.844
-32.267
-31.638
-30.966
-30.264
-29.544
-28.819
-28.1
-27.4
-26.732
-26.107
-25.539
-25.038
-24.617
-24.286
-24.057
-23.94
-23.946
-24.082
-24.357
-24.78
-25.355
-26.089
-26.985
-28.045
-29.27
-30.662
-32.218
-33.936
-35.813
-37.845
-40.025
-42.348
-44.806
-47.389
-50.088
-52.892
-55.789
-58.766
-61.811
-64.909
-68.045
-71.205
-74.373
-77.532
-80.668
-83.764
-86.804
-89.77
-92.648
-95.42
-98.072
-100.588
-102.953
-105.153
-107.177
-109.01
-110.643
-112.065
-113.267
-114.241
-114.98
-115.48
-115.736
-115.744
-115.505
-115.018
-114.283
-113.305
-112.088
-110.636
-108.957
-107.06
-104.952
-102.645
-100.149
-97.478
-94.645
-91.663
-88.547
-85.314
-81.98
-78.561
-75.074
-71.536
-67.964
-64.375
-60.785
-57.211
-53.667
-50.17
-46.733
-43.37
-40.093
-36.916
-33.848
-30.901
-28.083
-25.401
-22.863
-20.472
-18.235
-16.154
-14.23
-12.467
-10.864
-9.421
-8.137
-7.009
-6.035
-5.211
-4.531
-3.99
-3.58
-3.296
-3.129
-3.073
-3.12
-3.264
-3.499
-3.818
-4.216
-4.687
-5.228
-5.833
-6.498
-7.221
-7.998
-8.828
-9.709
-10.642
-11.628
-12.669
-13.769
-14.929
-16.154
-17.448
-18.814
-20.256
-21.78
-23.391
-25.093
-26.895
-28.806
-30.836
-32.995
-35.294
-37.745
-40.357
-43.141
-46.103
-49.25
-52.586
-56.111
-59.827
-63.738
-67.845
-72.15
-76.655
-81.365
-86.282
-91.41
-96.748
-102.297
-108.052
-114.009
-120.162
-126.505
-133.035
-139.758
-146.675
-153.782
-161.069
-168.522
-176.114
-183.813
-191.575
-199.34
-207.046
-214.627
-222.027
-229.2
-236.116
-242.758
-249.105
-255.132
-260.83
-266.204
-271.278
-276.099
-280.716
-285.186
-289.603
-294.098
-298.822
-303.94
-309.593
-315.886
-322.89
-330.634
-339.125
-348.349
-358.229
-368.652
-379.47
-390.51
-401.591
-412.514
-422.998
-432.685
-441.199
-448.148
-453.137
-455.759
-455.708
-452.871
-447.315
-439.34
-429.318
-417.523
-404.324
-390.249
-375.563
-360.16
-343.601
-324.979
-303.477
-278.851
-250.962
-219.621
-185.287
-149.255
-113.683
-81.721
-56.518
-40.432
-35.552
-44.005
-67.015
-104.279
-154.01
-212.829
-276.713
-342.047
-405.009
-460.942
-505.634
-536.426
-551.958
-552.537
-539.54
-514.155
-478.393
-436.016
-391.087
-346.983
-306.664
-271.781
-243.164
-222.074
-208.891
-202.34
-200.65
-201.839
-203.743
-205.211
-205.523
-203.494
-198.538
-190.855
-180.894
-169.609
-158.165
-147.023
-136.412
-126.717
-117.99
-110.178
-103.197
-96.628
-89.989
-83.086
-75.835
-68.199
-60.274
-52.092
-43.667
-35.109
-26.534
-18.027
-9.657
-1.453
6.572
14.395
21.996
29.353
36.45
43.286
49.863
56.189
62.276
68.125
73.733
79.1
84.22
89.092
93.72
98.107
102.253
106.165
109.844
113.296
116.528
119.544
122.345
124.93
127.297
129.447
131.384
133.114
134.644
135.98
137.128
138.094
138.888
139.517
139.986
140.3
140.465
140.485
140.368
140.121
139.75
139.265
138.672
137.98
137.195
136.328
135.385
134.374
133.301
132.175
131.002
129.789
128.543
127.271
125.978
124.671
123.355
122.036
120.718
119.408
118.108
116.825
115.561
114.322
113.112
111.933
110.789
109.685
108.623
107.606
106.638
105.72
104.856
104.046
103.293
102.599
101.963
101.387
100.872
100.416
100.021
99.684
99.406
99.185
99.019
98.908
98.849
98.841
98.881
98.968
99.097
99.268
99.477
99.72
99.996
100.3
100.629
100.982
101.353
101.742
102.145
102.559
102.981
103.408
103.838
104.268
104.694
105.115
105.528
105.931
106.322
106.698
107.059
107.402
107.727
108.032
108.315
108.575
108.811
109.023
109.208
109.368
109.5
109.604
109.68
109.728
109.746
109.734
109.69
109.614
109.505
109.36
109.179
108.959
108.701
108.401
108.06
107.675
107.246
106.772
106.253
105.687
105.076
104.418
103.715
102.968
102.177
101.344
100.472
99.563
98.62
97.646
96.645
95.621
94.579
93.522
92.457
91.388
90.324
89.27
88.234
87.225
86.25
85.319
84.442
83.629
82.89
82.235
81.676
81.221
80.88
80.664
80.58
80.636
80.839
81.195
81.71
82.389
83.234
84.248
85.432
86.788
88.314
90.009
91.87
93.893
96.075
98.41
100.893
103.515
106.27
109.148
112.14
115.236
118.425
121.692
125.022
128.403
131.819
135.255
138.697
142.129
145.537
148.91
152.238
155.513
158.725
161.864
164.923
167.895
170.777
173.561
176.241
178.809
181.26
183.591
185.798
187.881
189.834
191.656
193.348
194.916
196.369
197.713
198.954
200.103
201.176
202.19
203.175
204.157
205.156
206.197
207.3
208.477
209.734
211.062
212.424
213.785
215.101
216.322
217.412
218.315
218.977
219.371
219.45
219.176
218.518
217.412
215.829
213.797
211.376
208.67
205.837
203.006
200.363
198.195
196.679
195.877
195.698
195.808
195.902
195.835
195.426
194.409
192.756
190.765
189.131
189.095
191.82
197.937
207.875
221.942
239.724
259.89
280.291
297.785
308.954
311.093
301.699
278.378
240.225
187.975
123.616
50.635
-26.647
-104.066
-176.849
-239.693
-288.918
-322.589
-340.075
-342.207
-330.587
-307.416
-276.358
-242.29
-209.268
-180.071
-156.45
-139.35
-129.589
-127.257
-131.074
-138.572
-147.229
-155.393
-162.221
-167.138
-169.381
-168.575
-165.033
-159.767
-154.159
-149.012
-144.538
-140.833
-138.042
-136.234
-135.324
-134.948
-134.49
-133.598
-132.2
-130.298
-127.963
-125.218
-122.05
-118.527
-114.792
-110.948
-107.053
-103.14
-99.204
-95.277
-91.431
-87.713
-84.158
-80.786
-77.591
-74.572
-71.731
-69.057
-66.535
-64.154
-61.903
-59.775
-57.769
-55.877
-54.091
-52.397
-50.778
-49.22
-47.707
-46.224
-44.76
-43.306
-41.855
-40.401
-38.94
-37.465
-35.967
-34.437
-32.866
-31.245
-29.566
-27.821
-26.003
-24.106
-22.127
-20.063
-17.913
-15.675
-13.345
-10.922
-8.406
-5.795
-3.09
-0.29
2.603
5.589
8.665
11.828
15.073
18.396
21.793
25.257
28.782
32.361
35.985
39.647
43.338
47.049
50.768
54.487
58.195
61.882
65.538
69.151
72.713
76.212
79.638
82.984
86.239
89.394
92.441
95.372
98.178
100.852
103.386
105.774
108.009
110.085
111.996
113.738
115.306
116.696
117.906
118.934
119.777
120.437
120.912
121.204
121.315
121.246
121.002
120.585
119.999
119.249
118.339
117.274
116.06
114.702
113.206
111.578
109.823
107.948
105.958
103.86
101.659
99.361
96.973
94.499
91.948
89.323
86.632
83.881
81.075
78.22
75.321
72.385
69.417
66.42
63.401
60.364
57.312
54.251
51.184
48.116
45.05
41.992
38.944
35.911
32.898
29.908
26.945
24.016
21.124
18.274
15.473
12.726
10.039
7.417
4.867
2.394
0.003
-2.3
-4.51
-6.622
-8.633
-10.539
-12.336
-14.021
-15.593
-17.049
-18.39
-19.615
-20.726
-21.722
-22.608
-23.385
-24.059
-24.634
-25.115
-25.509
-25.823
-26.066
-26.248
-26.38
-26.473
-26.54
-26.596
-26.658
-26.74
-26.862
-27.04
-27.294
-27.642
-28.105
-28.701
-29.451
-30.373
-31.486
-32.809
-34.359
-36.155
-38.211
-40.543
-43.165
-46.088
-49.325
-52.883
-56.772
-60.995
-65.557
-70.462
-75.709
-81.297
-87.225
-93.489
-100.08
-106.988
-114.196
-121.685
-129.429
-137.405
-145.589
-153.95
-162.462
-171.093
-179.816
-188.604
-197.431
-206.265
-215.072
-223.808
-232.436
-240.926
-249.252
-257.392
-265.32
-273.003
-280.412
-287.526
-294.318
-300.758
-306.801
-312.384
-317.46
-321.995
-325.971
-329.39
-332.241
-334.505
-336.162
-337.187
-337.59
-337.412
-336.703
-335.521
-333.919
-331.922
-329.621
-327.181
-324.651
-321.999
-319.061
-315.497
-311.185
-306.251
-300.79
-294.889
-288.736
-282.503
-276.689
-272.16
-269.242
-267.734
-267.241
-267.11
-266.773
-265.839
-263.493
-258.559
-250.457
-239.07
-224.575
-207.509
-188.247
-167.125
-144.94
-122.692
-101.142
-81.205
-64.038
-50.989
-43.607
-43.146
-50.491
-66.662
-92.775
-129.186
-175.143
-228.724
-287.39
-348.867
-410.753
-469.778
-522.006
-563.909
-593.13
-608.95
-611.651
-601.419
-579.094
-546.928
-508.372
-467.451
-427.792
-391.636
-360.386
-335.576
-318.032
-307.44
-302.537
-301.026
-300.46
-299.381
-296.833
-291.763
-283.635
-272.428
-258.491
-242.929
-227.036
-211.464
-196.587
-182.743
-169.952
-158.135
-147.178
-136.653
-126.071
-115.232
-104.049
-92.501
-80.696
-68.7
-56.559
-44.396
-32.333
-20.44
-8.777
2.619
13.73
24.5
34.882
44.856
54.402
63.523
72.234
80.545
88.485
96.091
103.395
110.421
117.193
123.73
130.056
136.2
142.192
148.063
153.845
159.563
165.249
170.928
176.62
182.342
188.104
193.914
199.782
205.716
211.724
217.81
223.976
230.223
236.548
242.947
249.412
255.929
262.482
269.054
275.625
282.173
288.677
295.111
301.45
307.667
313.735
319.627
325.315
330.771
335.966
340.873
345.466
349.719
353.61
357.115
360.214
362.888
365.122
366.903
368.217
369.058
369.418
369.294
368.685
367.593
366.022
363.98
361.477
358.526
355.141
351.343
347.15
342.585
337.672
332.438
326.909
321.114
315.082
308.844
302.429
295.868
289.193
282.433
275.619
268.78
261.944
255.138
248.388
241.719
235.153
228.71
222.411
216.272
210.308
204.534
198.959
193.595
188.448
183.524
178.825
174.353
170.108
166.086
162.284
158.695
155.313
152.129
149.133
146.315
143.663
141.165
138.809
136.581
134.469
132.46
130.539
128.696
126.916
125.189
123.504
121.85
120.218
118.6
116.986
115.371
113.748
112.112
110.458
108.783
107.085
105.361
103.611
101.837
100.037
98.216
96.374
94.516
92.645
90.764
88.878
86.992
85.109
83.236
81.376
79.535
77.716
75.925
74.164
72.438
70.748
69.096
67.481
65.904
64.369
62.876
61.425
60.016
58.641
57.299
55.995
54.722
53.459
52.187
50.887
49.55
48.195
46.821
45.394
43.924
42.463
41.048
39.72
38.481
37.25
35.996
34.787
33.544
31.974
30.001
27.707
25.049
22.312
18.977
13.274
5.492
-2.716
-8.76
-7.635
0.594
10.841
18.123
15.352
1.748
-15.912
-32.365
-42.03
-43.661
-42.294
-41.103
-42.153
-46.18
-51.128
-55.995
-60.855
-65.616
-70.564
-75.775
-80.949
-85.972
-90.871
-95.619
-100.179
-104.543
-108.708
-112.685
-116.514
-120.199
-123.706
-127.015
-130.119
-133.01
-135.688
-138.149
-140.381
-142.383
-144.155
-145.694
-147.002
-148.067
-148.867
-149.376
-149.552
-149.36
-148.785
-147.802
-146.386
-144.51
-142.128
-139.226
-135.831
-131.968
-127.693
-123.074
-118.145
-113.002
-107.796
-102.577
-97.37
-92.116
-86.576
-80.611
-74.189
-67.175
-59.538
-51.523
-43.468
-36.012
-30.094
-26.365
-25.314
-27.501
-33.015
-41.307
-51.412
-61.794
-70.52
-75.88
-76.198
-69.643
-55.052
-32.342
-2.224
33.883
73.864
115.136
154.657
188.806
214.119
228.172
229.152
215.29
186.68
145.826
95.573
39.557
-20.981
-88.72
-163.161
-239.647
-308.874
-357.748
-378.18
-368.772
-334.81
-286.493
-234.366
-188.42
-154.526
-134.678
-126.855
-125.167
-125.655
-125.487
-124.158
-123.964
-125.181
-128.036
-132.274
-135.902
-137.955
-137.912
-135.543
-131.851
-128.026
-124.568
-121.647
-119.197
-117.036
-115.28
-114.059
-113.213
-112.368
-111.212
-109.602
-107.546
-105.16
-102.484
-99.493
-96.203
-92.678
-89.016
-85.309
-81.621
-77.977
-74.408
-70.947
-67.618
-64.445
-61.44
-58.598
-55.912
-53.367
-50.943
-48.636
-46.448
-44.379
-42.427
-40.584
-38.839
-37.183
-35.607
-34.102
-32.658
-31.262
-29.906
-28.585
-27.296
-26.041
-24.821
-23.634
-22.474
-21.339
-20.223
-19.121
-18.03
-16.944
-15.859
-14.774
-13.686
-12.597
-11.508
-10.419
-9.332
-8.246
-7.162
-6.081
-5.001
-3.923
-2.846
-1.77
-0.694
0.381
1.457
2.533
3.608
4.683
5.759
6.837
7.917
8.999
10.086
11.176
12.271
13.371
14.475
15.584
16.697
17.812
18.929
20.047
21.165
22.281
23.395
24.504
25.606
26.698
27.779
28.843
29.887
30.906
31.896
32.851
33.766
34.634
35.449
36.205
36.895
37.512
38.048
38.496
38.849
39.1
39.24
39.263
39.162
38.93
38.562
38.052
37.394
36.584
35.618
34.493
33.207
31.757
30.144
28.366
26.426
24.324
22.064
19.647
17.079
14.365
11.508
8.516
5.396
2.154
-1.202
-4.662
-8.217
-11.858
-15.576
-19.358
-23.196
-27.076
-30.989
-34.922
-38.863
-42.8
-46.721
-50.614
-54.466
-58.265
-61.999
-65.658
-69.229
-72.701
-76.065
-79.31
-82.426
-85.405
-88.236
-90.912
-93.423
-95.761
-97.919
-99.887
-101.658
-103.224
-104.579
-105.715
-106.624
-107.302
-107.741
-107.935
-107.88
-107.569
-107
-106.169
-105.072
-103.707
-102.074
-100.173
-98.004
-95.568
-92.868
-89.906
-86.686
-83.213
-79.49
-75.524
-71.32
-66.885
-62.227
-57.355
-52.277
-47.006
-41.551
-35.928
-30.149
-24.231
-18.19
-12.043
-5.807
0.498
6.852
13.237
19.631
26.014
32.367
38.668
44.898
51.038
57.07
62.976
68.741
74.349
79.786
85.04
90.101
94.957
99.601
104.022
108.213
112.168
115.884
119.358
122.59
125.58
128.334
130.859
133.169
135.274
137.19
138.929
140.51
141.952
143.274
144.494
145.632
146.704
147.731
148.735
149.735
150.753
151.806
152.915
154.102
155.388
156.799
158.356
160.078
161.988
164.108
166.463
169.088
172.012
175.254
178.839
182.782
187.087
191.754
196.763
202.065
207.612
213.344
219.193
225.103
231.003
236.834
242.56
248.12
253.462
258.541
263.288
267.664
271.697
275.416
278.888
282.264
285.649
289.231
293.32
298.042
303.418
309.345
315.434
321.389
327.12
332.328
336.655
340.227
343.336
346.715
351.807
359.542
370.366
384.946
403.5
425.151
448.588
471.644
490.834
503.222
506.252
496.659
473.177
437.356
390.698
335.555
272.427
198.085
113.757
25.455
-55.965
-115.245
-144.485
-142.818
-114.347
-69.298
-15.408
40.058
87.659
121.902
139.485
141.415
135.263
127.542
122.247
120.249
117.944
113.09
105.638
96.748
89.552
85.748
85.069
86.86
89.747
92.483
94.743
96.276
96.667
95.867
93.956
91.045
87.58
84.031
80.562
77.27
74.209
71.294
68.491
65.789
63.077
60.253
57.271
54.083
50.689
47.102
43.294
39.25
34.966
30.443
25.702
20.776
15.691
10.482
5.194
-0.14
-5.483
-10.805
-16.079
-21.274
-26.358
-31.297
-36.055
-40.598
-44.894
-48.912
-52.625
-56.011
-59.052
-61.735
-64.051
-65.992
-67.548
-68.713
-69.482
-69.856
-69.836
-69.428
-68.64
-67.486
-65.982
-64.148
-62.009
-59.589
-56.913
-54.011
-50.912
-47.647
-44.248
-40.75
-37.184
-33.585
-29.989
-26.43
-22.944
-19.565
-16.325
-13.257
-10.393
-7.761
-5.389
-3.303
-1.527
-0.081
1.017
1.749
2.103
2.069
1.639
0.811
-0.419
-2.046
-4.066
-6.47
-9.247
-12.381
-15.857
-19.654
-23.752
-28.126
-32.751
-37.6
-42.646
-47.858
-53.206
-58.66
-64.186
-69.754
-75.331
-80.885
-86.386
-91.803
-97.106
-102.268
-107.261
-112.06
-116.641
-120.984
-125.067
-128.873
-132.387
-135.595
-138.487
-141.052
-143.287
-145.186
-146.748
-147.975
-148.869
-149.436
-149.683
-149.62
-149.256
-148.606
-147.682
-146.501
-145.078
-143.433
-141.582
-139.545
-137.343
-134.995
-132.52
-129.939
-127.27
-124.533
-121.745
-118.923
-116.085
-113.245
-110.418
-107.617
-104.854
-102.141
-99.486
-96.897
-94.382
-91.945
-89.59
-87.319
-85.134
-83.034
-81.019
-79.086
-77.231
-75.451
-73.739
-72.091
-70.498
-68.952
-67.446
-65.969
-64.512
-63.067
-61.625
-60.176
-58.712
-57.226
-55.71
-54.159
-52.566
-50.927
-49.237
-47.493
-45.694
-43.837
-41.923
-39.952
-37.928
-35.852
-33.73
-31.566
-29.365
-27.134
-24.88
-22.608
-20.328
-18.047
-15.775
-13.523
-11.302
-9.125
-7.005
-4.958
-2.996
-1.136
0.608
2.222
3.693
5.006
6.148
7.107
7.87
8.426
8.762
8.868
8.732
8.345
7.699
6.787
5.604
4.145
2.405
0.384
-1.922
-4.515
-7.399
-10.578
-14.053
-17.823
-21.888
-26.24
-30.87
-35.768
-40.92
-46.311
-51.925
-57.749
-63.765
-69.964
-76.335
-82.868
-89.551
-96.37
-103.31
-110.362
-117.516
-124.767
-132.108
-139.528
-147.008
-154.532
-162.078
-169.625
-177.152
-184.625
-192.001
-199.235
-206.277
-213.096
-219.657
-225.913
-231.797
-237.23
-242.153
-246.568
-250.514
-254.055
-257.274
-260.197
-262.872
-265.425
-267.885
-270.229
-272.396
-274.099
-275.095
-275.442
-275.213
-274.519
-273.794
-273.344
-273.453
-274.91
-278.31
-283.712
-291.164
-300.265
-309.888
-319.224
-327.535
-333.363
-335.415
-332.703
-324.011
-308.937
-288.237
-262.457
-232.121
-198.646
-163.846
-130.118
-100.663
-78.033
-63.805
-59.788
-67.725
-88.68
-121.957
-164.41
-213.239
-266.503
-323.576
-385.521
-448.06
-502.826
-542.463
-559.146
-552.527
-529.751
-497.07
-462.204
-429.822
-399.32
-371.462
-346.741
-325.97
-312.195
-306.684
-308.627
-316.389
-327.119
-338.139
-348.129
-356.168
-361.204
-362.721
-360.712
-355.574
-348.444
-340.591
-332.595
-324.72
-317.239
-310.213
-303.69
-297.689
-291.876
-285.805
-279.274
-272.199
-264.587
-256.541
-248.09
-239.221
-230.006
-220.551
-210.958
-201.334
-191.747
-182.214
-172.757
-163.401
-154.169
-145.09
-136.183
-127.449
-118.885
-110.5
-102.313
-94.353
-86.649
-79.219
-72.071
-65.208
-58.631
-52.344
-46.346
-40.634
-35.197
-30.027
-25.116
-20.461
-16.061
-11.908
-7.993
-4.299
-0.811
2.488
5.613
8.584
11.42
14.139
16.758
19.293
21.756
24.16
26.519
28.845
31.15
33.446
35.743
38.05
40.376
42.728
45.11
47.527
49.978
52.463
54.979
57.521
60.083
62.658
65.236
67.808
70.364
72.892
75.379
77.812
80.176
82.457
84.641
86.712
88.655
90.457
92.105
93.585
94.888
96.001
96.916
97.624
98.117
98.39
98.437
98.255
97.841
97.196
96.321
95.22
93.898
92.362
90.621
88.686
86.57
84.287
81.853
79.285
76.601
73.821
70.967
68.06
65.122
62.178
59.25
56.362
53.539
50.804
48.18
45.691
43.36
41.207
39.255
37.523
36.032
34.799
33.842
33.176
32.815
32.773
33.06
33.685
34.655
35.975
37.649
39.678
42.06
44.794
47.873
51.292
55.04
59.108
63.483
68.15
73.094
78.296
83.738
89.4
95.261
101.299
107.49
113.812
120.241
126.751
133.318
139.916
146.521
153.107
159.649
166.124
172.507
178.776
184.909
190.885
196.685
202.289
207.682
212.849
217.774
222.446
226.854
230.988
234.843
238.411
241.69
244.678
247.373
249.779
251.898
253.735
255.296
256.588
257.619
258.4
258.942
259.258
259.362
259.268
258.992
258.551
257.963
257.245
256.414
255.487
254.481
253.413
252.297
251.149
249.983
248.814
247.653
246.516
245.413
244.357
243.357
242.423
241.563
240.785
240.094
239.495
238.993
238.591
238.293
238.103
238.022
238.052
238.191
238.439
238.793
239.248
239.801
240.444
241.17
241.975
242.852
243.798
244.808
245.881
247.013
248.206
249.458
250.77
252.139
253.566
255.048
256.581
258.161
259.78
261.43
263.107
264.806
266.524
268.261
270.019
271.804
273.619
275.474
277.373
279.321
281.321
283.38
285.515
287.754
290.134
292.695
295.465
298.468
301.721
305.225
308.96
312.882
316.919
320.994
325.047
329.049
332.99
336.857
340.62
344.217
347.584
350.681
353.492
355.998
358.169
359.993
361.556
363.084
364.841
366.997
369.543
372.317
375.177
378.059
380.84
383.261
385.178
386.83
388.956
392.621
398.729
408.026
421.3
439.191
461.958
488.074
514.093
537.771
557.719
574.191
589.588
601.209
603.714
592.559
561.451
510.615
444.92
368.593
290.867
220.232
164.087
132.093
127.681
151.237
200.299
264.302
333.244
396.075
439.706
459.355
455.039
431.076
399.92
372.769
354.954
348.741
350.49
352.854
353.27
350.967
345.455
339.75
334.484
328.891
323.864
318.638
312.591
306.024
298.633
290.577
282.478
274.547
266.795
259.226
251.693
244.129
236.611
229.18
221.813
214.468
207.091
199.61
191.989
184.224
176.307
168.239
160.019
151.657
143.179
134.622
126.031
117.434
108.843
100.261
91.685
83.121
74.582
66.087
57.653
49.291
41.015
32.837
24.775
16.839
9.037
1.368
-6.172
-13.583
-20.862
-28.004
-35.004
-41.859
-48.565
-55.119
-61.517
-67.756
-73.839
-79.768
-85.547
-91.184
-96.684
-102.056
-107.307
-112.444
-117.478
-122.415
-127.264
-132.035
-136.736
-141.376
-145.966
-150.516
-155.036
-159.539
-164.034
-168.531
-173.042
-177.575
-182.139
-186.743
-191.395
-196.102
-200.873
-205.713
-210.63
-215.629
-220.716
-225.895
-231.168
-236.537
-242.001
-247.561
-253.213
-258.955
-264.781
-270.688
-276.669
-282.718
-288.827
-294.988
-301.193
-307.431
-313.694
-319.971
-326.25
-332.521
-338.772
-344.992
-351.169
-357.291
-363.348
-369.329
-375.221
-381.015
-386.699
-392.264
-397.699
-402.995
-408.143
-413.134
-417.962
-422.618
-427.096
-431.39
-435.496
-439.409
-443.125
-446.641
-449.955
-453.065
-455.969
-458.666
-461.156
-463.439
-465.516
-467.385
-469.05
-470.51
-471.767
-472.823
-473.68
-474.34
-474.806
-475.079
-475.162
-475.057
-474.768
-474.297
-473.645
-472.818
-471.816
-470.643
-469.303
-467.798
-466.132
-464.307
-462.329
-460.199
-457.923
-455.503
-452.943
-450.248
-447.423
-444.471
-441.4
-438.214
-434.92
-431.523
-428.031
-424.45
-420.787
-417.049
-413.242
-409.374
-405.453
-401.484
-397.476
-393.437
-389.374
-385.295
-381.208
-377.12
-373.038
-368.97
-364.923
-360.903
-356.917
-352.971
-349.072
-345.225
-341.436
-337.711
-334.053
-330.467
-326.955
-323.519
-320.161
-316.881
-313.679
-310.553
-307.504
-304.529
-301.627
-298.798
-296.039
-293.351
-290.731
-288.177
-285.686
-283.257
-280.887
-278.572
-276.309
-274.094
-271.926
-269.8
-267.715
-265.666
-263.653
-261.671
-259.717
-257.787
-255.877
-253.981
-252.097
-250.22
-248.346
-246.473
-244.601
-242.728
-240.855
-238.981
-237.101
-235.211
-233.302
-231.363
-229.384
-227.353
-225.262
-223.1
-220.859
-218.536
-216.13
-213.644
-211.078
-208.426
-205.683
-202.847
-199.92
-196.91
-193.82
-190.654
-187.414
-184.096
-180.701
-177.228
-173.667
-169.996
-166.181
-162.171
-157.932
-153.447
-148.691
-143.637
-138.246
-132.459
-126.247
-119.627
-112.638
-105.345
-97.826
-90.123
-82.312
-74.535
-66.843
-59.243
-51.649
-43.794
-35.441
-26.503
-16.937
-6.771
3.645
13.828
23.219
30.92
36.135
38.339
37.19
32.776
26.051
18.428
11.29
6.5
5.965
11.376
24.408
46.026
75.697
112.007
153.585
198.235
243.092
284.953
319.871
344.323
356.383
354.885
338.562
307.243
262.152
205.66
141.761
74.768
8.059
-54.865
-109.825
-153.317
-183.231
-198.856
-201.254
-192.129
-172.845
-145.731
-114.461
-82.86
-54.103
-30.268
-12.125
-0.133
4.939
3.318
-3.517
-13.476
-24.377
-34.85
-44.429
-52.642
-58.716
-62.331
-63.733
-63.72
-63.469
-63.596
-64.135
-65.109
-66.601
-68.681
-71.376
-74.43
-77.315
-79.732
-81.61
-82.949
-83.833
-84.279
-84.24
-83.744
-82.897
-81.79
-80.498
-79.065
-77.492
-75.785
-73.955
-72.014
-69.973
-67.831
-65.573
-63.181
-60.632
-57.917
-55.04
-52.003
-48.809
-45.451
-41.924
-38.222
-34.344
-30.289
-26.054
-21.638
-17.038
-12.257
-7.302
-2.182
3.087
8.498
14.041
19.708
25.491
31.38
37.363
43.43
49.569
55.769
62.013
68.285
74.567
80.842
87.093
93.303
99.456
105.537
111.53
117.421
123.194
128.837
134.337
139.681
144.857
149.853
154.659
159.265
163.665
167.85
171.815
175.555
179.067
182.35
185.402
188.223
190.816
193.183
195.329
197.259
198.981
200.503
201.833
202.985
203.969
204.799
205.488
206.05
206.502
206.858
207.134
207.345
207.509
207.641
207.756
207.872
208.003
208.165
208.372
208.64
208.981
209.408
209.933
210.568
211.322
212.205
213.224
214.388
215.701
217.17
218.797
220.586
222.538
224.653
226.929
229.366
231.96
234.705
237.598
240.631
243.798
247.088
250.494
254.005
257.609
261.295
265.051
268.863
272.717
276.601
280.5
284.399
288.283
292.138
295.95
299.702
303.382
306.973
310.462
313.835
317.079
320.178
323.123
325.899
328.495
330.901
333.106
335.1
336.874
338.422
339.735
340.807
341.635
342.214
342.542
342.619
342.445
342.021
341.351
340.439
339.29
337.911
336.308
334.492
332.471
330.257
327.863
325.301
322.587
319.734
316.76
313.68
310.512
307.274
303.983
300.658
297.318
293.982
290.671
287.405
284.203
281.086
278.076
275.19
272.449
269.869
267.467
265.258
263.257
261.476
259.927
258.621
257.568
256.776
256.254
256.007
256.039
256.352
256.947
257.82
258.97
260.389
262.073
264.013
266.201
268.627
271.282
274.153
277.226
280.486
283.916
287.495
291.205
295.022
298.921
302.878
306.871
310.878
314.877
318.849
322.773
326.633
330.415
334.1
337.669
341.102
344.379
347.477
350.379
353.065
355.517
357.723
359.672
361.356
362.777
363.93
364.811
365.408
365.703
365.68
365.34
364.684
363.714
362.45
360.918
359.163
357.259
355.259
353.199
351.105
348.973
346.796
344.578
342.314
340.001
337.654
335.268
332.845
330.407
327.93
325.364
322.619
319.522
315.926
311.74
306.884
301.334
295.106
288.218
280.751
272.831
264.535
255.942
247.114
238.07
228.919
219.838
211.047
202.889
195.691
189.743
185.415
182.907
182.231
183.294
185.704
189.007
192.974
197.242
201.369
205.434
209.671
214.551
221.188
230.293
242.082
257.064
275.402
296.205
318.24
339.602
357.225
368.456
370.943
361.875
340.176
307.204
264.646
213.938
154.662
84.744
5.316
-76.272
-146.794
-193.275
-209.208
-197.191
-168.627
-135.379
-104.942
-80.16
-58.752
-38.705
-20.42
-5.829
1.734
0.923
-7.166
-20.19
-35.032
-49.781
-63.719
-76.057
-85.949
-93.028
-97.367
-99.815
-101.859
-104.347
-107.501
-111.486
-116.382
-122.216
-129.012
-136.486
-144.031
-151.28
-158.101
-164.453
-170.418
-176.028
-181.234
-186.056
-190.582
-194.882
-199.017
-203.022
-206.887
-210.631
-214.279
-217.847
-221.357
-224.814
-228.21
-231.536
-234.779
-237.927
-240.982
-243.953
-246.853
-249.691
-252.474
-255.208
-257.905
-260.569
-263.208
-265.83
-268.438
-271.043
-273.661
-276.308
-279.006
-281.775
-284.631
-287.587
-290.657
-293.848
-297.172
-300.634
-304.243
-308.001
-311.914
-315.988
-320.228
-324.635
-329.212
-333.955
-338.862
-343.926
-349.139
-354.49
-359.968
-365.557
-371.244
-377.011
-382.84
-388.714
-394.612
-400.514
-406.4
-412.246
-418.03
-423.729
-429.321
-434.783
-440.094
-445.233
-450.179
-454.914
-459.422
-463.685
-467.69
-471.423
-474.872
-478.028
-480.881
-483.426
-485.658
-487.574
-489.174
-490.461
-491.438
-492.114
-492.495
-492.594
-492.422
-491.995
-491.327
-490.436
-489.342
-488.065
-486.627
-485.049
-483.356
-481.572
-479.721
-477.828
-475.918
-474.015
-472.144
-470.327
-468.587
-466.947
-465.427
-464.047
-462.826
-461.781
-460.927
-460.279
-459.847
-459.643
-459.673
-459.944
-460.46
-461.221
-462.228
-463.477
-464.964
-466.682
-468.622
-470.774
-473.124
-475.659
-478.362
-481.215
-484.199
-487.292
-490.473
-493.72
-497.007
-500.31
-503.605
-506.865
-510.064
-513.177
-516.176
-519.035
-521.728
-524.23
-526.516
-528.56
-530.342
-531.837
-533.026
-533.889
-534.409
-534.569
-534.354
-533.751
-532.748
-531.335
-529.504
-527.248
-524.564
-521.447
-517.897
-513.916
-509.504
-504.667
-499.411
-493.742
-487.668
-481.2
-474.348
-467.124
-459.541
-451.615
-443.359
-434.792
-425.929
-416.79
-407.391
-397.752
-387.891
-377.826
-367.574
-357.154
-346.583
-335.877
-325.053
-314.126
-303.114
-292.032
-280.894
-269.717
-258.513
-247.294
-236.074
-224.864
-213.674
-202.514
-191.393
-180.32
-169.304
-158.357
-147.486
-136.702
-126.011
-115.423
-104.945
-94.585
-84.349
-74.244
-64.275
-54.45
-44.777
-35.266
-25.925
-16.766
-7.804
0.95
9.482
17.781
25.837
33.639
41.178
48.448
55.443
62.157
68.58
74.704
80.513
85.996
91.144
95.95
100.406
104.508
108.249
111.63
114.657
117.335
119.666
121.644
123.247
124.466
125.306
125.782
125.914
125.722
125.227
124.464
123.497
122.393
121.218
120.013
118.788
117.551
116.327
115.153
114.084
113.151
112.338
111.619
110.988
110.444
109.996
109.619
109.197
108.568
107.591
106.16
104.224
101.806
98.882
95.367
91.304
86.851
82.286
78.086
74.61
71.906
70.046
69.163
69.159
70.025
71.646
73.28
74.34
74.797
74.629
74.197
74.521
76.202
79.723
86.43
97.554
113.934
136.589
165.638
199.943
238.672
281.147
325.693
370.191
412.178
448.43
476.038
493.203
498.21
488.997
465.325
429.146
381.819
325.24
260.953
187.967
110.534
37.945
-21.216
-57.529
-68.877
-61.583
-41.553
-15.552
12.759
44.14
77.45
111.069
142.736
168.677
186.737
196.334
197.767
192.883
183.912
172.792
161.523
151.638
144.298
140.313
139.888
142.638
147.783
154.344
161.249
167.793
173.539
178.222
181.875
184.623
186.67
188.378
190.172
192.303
194.88
197.938
201.389
205.193
209.339
213.766
218.393
223.16
228.018
232.944
237.932
242.973
248.053
253.159
258.277
263.408
268.563
273.755
279
284.302
289.658
295.066
300.526
306.038
311.606
317.235
322.933
328.707
334.565
340.516
346.566
352.716
358.966
365.311
371.741
378.251
384.836
391.491
398.212
404.992
411.825
418.704
425.62
432.562
439.518
446.474
453.414
460.323
467.185
473.984
480.707
487.337
493.861
500.261
506.525
512.636
518.579
524.34
529.902
535.251
540.371
545.249
549.872
554.226
558.301
562.085
565.568
568.742
571.598
574.129
576.329
578.192
579.715
580.896
581.731
582.223
582.37
582.178
581.647
580.784
579.593
578.079
576.251
574.114
571.675
568.944
565.927
562.635
559.077
555.261
551.199
546.9
542.376
537.637
532.694
527.558
522.241
516.753
511.106
505.309
499.376
493.315
487.138
480.855
474.477
468.012
461.469
454.858
448.186
441.461
434.691
427.881
421.04
414.172
407.285
400.384
393.474
386.562
379.652
372.749
365.857
358.982
352.128
345.297
338.494
331.722
324.983
318.282
311.62
305
298.423
291.891
285.406
278.969
272.581
266.244
259.957
253.722
247.542
241.416
235.348
229.339
223.391
217.508
211.69
205.941
200.265
194.663
189.138
183.694
178.335
173.063
167.883
162.798
157.813
152.932
148.158
143.497
138.951
134.527
130.227
126.058
122.023
118.128
114.377
110.777
107.331
104.043
100.917
97.955
95.16
92.534
90.075
87.784
85.659
83.698
81.898
80.255
78.763
77.417
76.21
75.134
74.178
73.332
72.584
71.921
71.33
70.796
70.305
69.842
69.389
68.93
68.446
67.919
67.327
66.648
65.862
64.944
63.875
62.63
61.188
59.53
57.636
55.488
53.07
50.363
47.348
44.012
40.346
36.327
31.938
27.162
21.981
16.396
10.419
4.038
-2.758
-9.937
-17.47
-25.334
-33.489
-41.951
-50.754
-59.861
-69.215
-78.92
-89.097
-99.637
-110.522
-121.751
-132.989
-145.033
-158.65
-172.665
-186.705
-198.637
-205.923
-211.339
-216.713
-224.786
-239.327
-256.907
-274.62
-290.443
-301.069
-308.773
-315.874
-322.884
-331.244
-340.099
-348.345
-356.147
-363.305
-369.861
-376.043
-381.705
-386.771
-391.339
-395.477
-399.305
-402.986
-406.61
-410.236
-413.881
-417.486
-421.086
-424.748
-428.408
-432.05
-435.598
-438.879
-441.94
-444.82
-447.284
-449.068
-450.043
-450.006
-449.063
-447.572
-445.457
-442.61
-439.152
-435.159
-430.649
-425.66
-419.735
-411.856
-401.446
-388.201
-371.808
-352.299
-329.776
-304.273
-276.59
-248.812
-223.171
-201.705
-186.668
-179.834
-182.973
-198.623
-227.38
-266.73
-314.156
-367.152
-426.039
-495.261
-574.895
-659.71
-738.583
-795.35
-820.97
-813.785
-778.487
-726.842
-667.719
-608.7
-558.624
-521.679
-500.657
-495.201
-498.072
-503.038
-506.849
-508.559
-511.517
-518.108
-527.286
-536.787
-543.696
-546.333
-544.892
-540.278
-533.486
-525.322
-516.648
-508.236
-500.559
-493.871
-488.145
-483.17
-478.76
-474.668
-470.53
-466.137
-461.441
-456.455
-451.276
-446.022
-440.779
-435.678
-430.908
-426.539
-422.535
-418.869
-415.469
-412.292
-409.354
-406.634
-404.087
-401.678
-399.36
-397.101
-394.9
-392.726
-390.511
-388.189
-385.67
-382.929
-380.015
-376.955
-373.763
-370.445
-366.98
-363.371
-359.646
-355.807
-351.84
-347.731
-343.454
-339.01
-334.424
-329.716
-324.911
-320.01
-314.979
-309.8
-304.465
-298.968
-293.311
-287.491
-281.494
-275.326
-269.01
-262.568
-256.025
-249.396
-242.688
-235.912
-229.083
-222.218
-215.342
-208.477
-201.64
-194.855
-188.145
-181.535
-175.049
-168.709
-162.531
-156.53
-150.725
-145.131
-139.769
-134.654
-129.802
-125.229
-120.951
-116.984
-113.341
-110.035
-107.074
-104.468
-102.223
-100.346
-98.839
-97.705
-96.945
-96.556
-96.537
-96.883
-97.587
-98.642
-100.037
-101.761
-103.802
-106.144
-108.771
-111.666
-114.81
-118.183
-121.764
-125.531
-129.46
-133.526
-137.705
-141.971
-146.297
-150.656
-155.019
-159.36
-163.649
-167.858
-171.961
-175.93
-179.739
-183.363
-186.777
-189.96
-192.89
-195.548
-197.917
-199.981
-201.726
-203.141
-204.217
-204.946
-205.325
-205.351
-205.022
-204.343
-203.316
-201.947
-200.247
-198.223
-195.89
-193.261
-190.352
-187.18
-183.763
-180.122
-176.278
-172.253
-168.07
-163.751
-159.32
-154.801
-150.216
-145.587
-140.937
-136.285
-131.651
-127.052
-122.504
-118.023
-113.62
-109.306
-105.089
-100.977
-96.972
-93.077
-89.292
-85.614
-82.04
-78.564
-75.176
-71.869
-68.63
-65.447
-62.306
-59.192
-56.087
-52.976
-49.84
-46.659
-43.416
-40.092
-36.667
-33.124
-29.446
-25.616
-21.618
-17.439
-13.065
-8.488
-3.696
1.317
6.557
12.026
17.726
23.655
29.811
36.189
42.782
49.58
56.573
63.75
71.096
78.598
86.239
94.002
101.87
109.822
117.84
125.902
133.986
142.07
150.132
158.15
166.102
173.966
181.722
189.35
196.831
204.148
211.284
218.225
224.957
231.465
237.739
243.77
249.549
255.07
260.327
265.318
270.04
274.493
278.68
282.601
286.259
289.655
292.794
295.68
298.32
300.722
302.898
304.864
306.634
308.226
309.656
310.94
312.093
313.131
314.064
314.901
315.648
316.314
316.913
317.457
317.952
318.402
318.805
319.16
319.472
319.751
320.007
320.251
320.49
320.74
321.033
321.408
321.909
322.568
323.391
324.393
325.606
327.065
328.829
330.919
333.296
335.911
338.704
341.593
344.561
347.55
350.406
353.075
355.561
357.924
360.447
363.355
366.566
370.005
373.593
376.962
379.879
382.077
382.771
381.373
377.852
372.257
365.054
357.336
349.836
343.182
338.729
337.76
341.1
349.545
363.301
381.716
404.501
431.622
461.252
490.24
515.806
535.644
550.5
563.372
574.994
582.45
577.592
551.908
499.5
418.511
318.321
211.928
114.429
43.956
5.76
-4.187
6.12
22.079
36.578
51.528
67.344
84.346
100.164
107.296
103.6
93.09
80.278
71.429
69.026
70.276
73.131
75.818
77.699
80.167
83.617
87.608
91.684
95.058
97.41
98.899
99.635
99.775
99.497
98.947
98.263
97.603
97.135
96.922
97.013
97.463
98.196
99.134
100.278
101.448
102.299
102.808
103.073
102.962
102.82
102.311
99.922
96.147
92.437
91.132
97.628
112.903
132.653
150.746
156.225
143.584
116.817
83.681
57.47
46.805
51.614
67.795
86.742
103.768
117.162
126.08
131.26
128.88
117.441
98.288
74.778
56.344
48.658
53.692
69.521
87.531
101.861
109.138
108.987
106.15
103.772
103.533
106.13
109.93
114.072
118.589
123.378
128.714
134.658
140.907
147.321
153.867
160.49
167.168
173.885
180.618
187.356
194.106
200.849
207.535
214.122
220.577
226.864
232.952
238.808
244.399
249.693
254.668
259.3
263.567
267.45
270.931
273.995
276.629
278.824
280.572
281.87
282.715
283.107
283.051
282.549
281.611
280.245
278.462
276.276
273.7
270.751
267.447
263.805
259.846
255.59
251.059
246.273
241.257
236.03
230.617
225.039
219.318
213.476
207.532
201.508
195.424
189.297
183.147
176.991
170.845
164.725
158.646
152.621
146.664
140.787
135
129.315
123.74
118.285
112.957
107.764
102.712
97.808
93.058
88.464
84.033
79.766
75.667
71.736
67.977
64.388
60.971
57.725
54.65
51.744
49.006
46.434
44.025
41.775
39.682
37.741
35.947
34.294
32.775
31.385
30.118
28.968
27.927
26.986
26.132
25.36
24.663
24.023
23.42
22.839
22.259
21.675
21.09
20.48
19.821
19.128
18.413
17.681
16.948
16.181
15.329
14.406
13.449
12.338
10.931
9.305
7.451
5.342
3.271
0.45
-3.883
-8.628
-13.449
-16.324
-14.837
-11.641
-8.503
-8.055
-13.915
-22.852
-32.124
-39.843
-42.903
-43.491
-43.821
-44.368
-46.472
-49.318
-51.866
-54.287
-56.427
-58.333
-60.19
-61.842
-63.164
-64.174
-64.866
-65.215
-65.213
-64.858
-64.148
-63.1
-61.733
-60.039
-58.011
-55.656
-52.981
-49.996
-46.716
-43.151
-39.317
-35.232
-30.921
-26.405
-21.708
-16.856
-11.873
-6.789
-1.632
3.568
8.779
13.969
19.106
24.158
29.097
33.895
38.532
42.986
47.24
51.276
55.079
58.635
61.93
64.948
67.669
70.076
72.156
73.903
75.311
76.373
77.081
77.429
77.416
77.044
76.319
75.248
73.842
72.109
70.077
67.786
65.285
62.638
59.893
57.083
54.254
51.457
48.75
46.202
43.844
41.665
39.649
37.754
35.934
34.183
32.431
30.545
28.492
26.279
24.029
22.045
20.548
19.595
19.22
19.408
19.914
20.394
20.254
18.536
14.434
7.433
-2.575
-15.242
-29.67
-44.637
-58.661
-69.713
-75.671
-74.644
-65.462
-47.934
-22.903
8.206
43.834
81.492
117.836
149.249
172.522
185.274
186.169
174.449
149.072
111.025
63.901
10.561
-46.616
-106.474
-170.734
-236.229
-294.835
-339.814
-363.964
-367.033
-356.723
-339.466
-322.013
-307.743
-294.759
-281.829
-267.684
-252.013
-236.878
-223.525
-212.031
-202.001
-192.352
-183.003
-174.963
-168.799
-164.418
-161.183
-158.54
-156.417
-154.959
-153.869
-152.324
-149.737
-146.12
-142.057
-138.115
-134.477
-131.1
-127.99
-125.391
-123.55
-122.456
-121.81
-121.295
-120.779
-120.272
-119.885
-119.674
-119.637
-119.802
-120.261
-121.113
-122.44
-124.287
-126.636
-129.457
-132.737
-136.459
-140.612
-145.183
-150.135
-155.42
-160.991
-166.8
-172.803
-178.961
-185.226
-191.544
-197.862
-204.127
-210.293
-216.32
-222.168
-227.789
-233.139
-238.175
-242.861
-247.166
-251.062
-254.517
-257.504
-259.999
-261.984
-263.443
-264.367
-264.747
-264.58
-263.87
-262.623
-260.849
-258.56
-255.775
-252.514
-248.8
-244.66
-240.122
-235.219
-229.989
-224.474
-218.715
-212.758
-206.643
-200.415
-194.119
-187.801
-181.507
-175.281
-169.159
-163.185
-157.41
-151.884
-146.657
-141.766
-137.223
-133.048
-129.264
-125.888
-122.933
-120.403
-118.283
-116.583
-115.33
-114.549
-114.268
-114.489
-115.184
-116.33
-117.898
-119.879
-122.292
-125.133
-128.373
-132.005
-136.028
-140.451
-145.309
-150.569
-156.127
-161.891
-167.768
-173.693
-179.647
-185.59
-191.472
-197.235
-202.802
-208.118
-213.165
-217.883
-222.188
-225.992
-229.177
-231.719
-233.691
-235.146
-236.132
-236.679
-236.773
-236.431
-235.698
-234.605
-233.177
-231.434
-229.368
-227.018
-224.461
-221.774
-219.054
-216.334
-213.569
-210.74
-207.841
-204.874
-201.869
-198.834
-195.754
-192.644
-189.539
-186.475
-183.501
-180.635
-177.869
-175.2
-172.619
-170.143
-167.819
-165.681
-163.753
-162.057
-160.608
-159.426
-158.54
-157.96
-157.676
-157.676
-157.947
-158.484
-159.287
-160.352
-161.671
-163.229
-165.009
-166.992
-169.162
-171.497
-173.976
-176.57
-179.253
-181.999
-184.786
-187.594
-190.397
-193.171
-195.889
-198.529
-201.066
-203.478
-205.74
-207.829
-209.723
-211.4
-212.842
-214.031
-214.95
-215.583
-215.918
-215.943
-215.649
-215.028
-214.075
-212.786
-211.159
-209.192
-206.887
-204.244
-201.267
-197.962
-194.334
-190.393
-186.151
-181.621
-176.817
-171.756
-166.455
-160.932
-155.206
-149.295
-143.218
-136.994
-130.643
-124.186
-117.644
-111.04
-104.395
-97.731
-91.071
-84.439
-77.855
-71.34
-64.912
-58.587
-52.38
-46.306
-40.376
-34.602
-28.994
-23.562
-18.317
-13.272
-8.438
-3.828
0.553
4.698
8.606
12.277
15.711
18.913
21.895
24.662
27.212
29.539
31.626
33.466
35.063
36.428
37.578
38.544
39.371
40.108
40.813
41.53
42.286
43.08
43.896
44.72
45.539
46.377
47.273
48.254
49.338
50.531
51.817
53.148
54.431
55.523
56.263
56.518
56.195
55.278
53.799
51.814
49.408
46.611
43.414
39.846
35.937
31.748
27.397
23.031
18.85
15.206
12.543
11.207
11.397
13.077
15.981
19.814
24.349
29.34
34.445
39.525
44.851
51.083
59.293
70.5
85.214
103.686
126.21
152.495
181.249
210.441
237.264
258.685
272.309
275.932
267.052
244.838
210.826
167.146
116.198
58.452
-7.557
-80.186
-152.637
-213.694
-252.527
-264.33
-252.15
-225.633
-193.997
-162.499
-133.24
-104.747
-75.943
-48.263
-23.59
-4.292
7.687
12.332
11.116
5.893
-1.568
-9.548
-17.1
-23.555
-27.833
-29.424
-28.518
-25.508
-21.21
-16.618
-12.123
-7.923
-4.375
-1.562
0.535
1.976
3.142
4.493
6.217
8.395
11.064
14.151
17.642
21.548
25.775
30.208
34.764
39.376
44.019
48.713
53.463
58.262
63.108
67.992
72.922
77.915
82.991
88.158
93.413
98.749
104.165
109.662
115.246
120.92
126.685
132.537
138.476
144.502
150.614
156.81
163.085
169.43
175.832
182.283
188.777
195.306
201.868
208.454
215.057
221.671
228.288
234.9
241.496
248.062
254.584
261.05
267.447
273.762
279.976
286.075
292.043
297.866
303.535
309.034
314.339
319.439
324.337
329.032
333.522
337.796
341.813
345.554
349.034
352.222
355.043
357.441
359.352
360.757
361.724
362.268
362.3
361.894
361.343
360.712
359.91
358.975
357.598
356.347
357.084
359.46
361.764
361.245
352.649
336.185
317.181
300.907
294.847
299.663
308.279
315.216
314.611
305.32
292.66
279.947
269.401
261.771
254.925
247.875
240.724
233.416
226.292
219.465
212.663
205.814
198.987
192.192
185.431
178.731
172.117
165.628
159.324
153.232
147.334
141.63
136.127
130.828
125.735
120.847
116.157
111.66
107.356
103.241
99.31
95.557
91.974
88.552
85.283
82.158
79.166
76.297
73.541
70.886
68.322
65.838
63.424
61.07
58.768
56.508
54.282
52.084
49.908
47.748
45.601
43.463
41.333
39.212
37.099
34.997
32.909
30.84
28.793
26.776
24.794
22.855
20.967
19.138
17.378
15.694
14.098
12.599
11.209
9.937
8.796
7.796
6.947
6.261
5.746
5.413
5.269
5.324
5.583
6.053
6.739
7.645
8.773
10.124
11.699
13.495
15.508
17.735
20.169
22.803
25.628
28.634
31.811
35.149
38.634
42.254
45.995
49.842
53.779
57.789
61.856
65.959
70.079
74.196
78.29
82.339
86.324
90.222
94.014
97.678
101.196
104.548
107.714
110.676
113.417
115.919
118.169
120.152
121.858
123.274
124.393
125.207
125.712
125.902
125.774
125.324
124.548
123.445
122.016
120.264
118.196
115.82
113.146
110.189
106.962
103.483
99.767
95.832
91.693
87.367
82.87
78.217
73.428
68.527
63.531
58.457
53.315
48.114
42.872
37.61
32.348
27.109
21.91
16.771
11.721
6.795
2.029
-2.536
-6.876
-10.981
-14.823
-18.361
-21.543
-24.314
-26.674
-28.68
-30.4
-31.899
-33.216
-34.359
-35.393
-36.451
-37.596
-38.778
-39.807
-40.471
-40.739
-40.83
-40.99
-41.235
-41.564
-42.128
-43.321
-45.616
-49.146
-53.484
-57.969
-62.364
-66.515
-70.006
-72.214
-72.382
-69.928
-64.863
-57.413
-47.156
-33.779
-17.534
1.244
21.984
43.659
65.256
85.329
101.376
111.322
113.726
106.763
88.756
59.055
18.597
-29.523
-81.238
-134.2
-189.365
-248.242
-309.354
-367.475
-412.416
-435.127
-433.235
-409.962
-375.959
-341.289
-311.137
-289.307
-273.434
-262.702
-259.386
-260.639
-265.674
-272.121
-274.643
-274.291
-272.46
-269.394
-267.075
-264.695
-260.967
-256.866
-253.116
-250.147
-248.443
-247.733
-247.502
-247.758
-248.558
-249.54
-250.428
-251.059
-251.223
-250.979
-250.456
-249.601
-248.385
-246.851
-245.002
-242.892
-240.607
-238.161
-235.584
-232.936
-230.256
-227.617
-225.068
-222.63
-220.321
-218.144
-216.095
-214.176
-212.384
-210.703
-209.129
-207.655
-206.27
-204.968
-203.741
-202.572
-201.45
-200.353
-199.266
-198.176
-197.073
-195.947
-194.793
-193.602
-192.368
-191.087
-189.754
-188.359
-186.895
-185.351
-183.718
-181.989
-180.155
-178.209
-176.142
-173.951
-171.628
-169.17
-166.573
-163.832
-160.943
-157.901
-154.703
-151.346
-147.828
-144.146
-140.299
-136.285
-132.106
-127.762
-123.254
-118.585
-113.758
-108.774
-103.64
-98.359
-92.938
-87.381
-81.696
-75.889
-69.969
-63.943
-57.82
-51.61
-45.321
-38.963
-32.547
-26.083
-19.58
-13.051
-6.504
0.05
6.599
13.132
19.641
26.113
32.538
38.907
45.209
51.435
57.577
63.625
69.572
75.412
81.138
86.745
92.228
97.585
102.812
107.907
112.87
117.699
122.395
126.959
131.392
135.697
139.876
143.934
147.875
151.705
155.428
159.051
162.581
166.023
169.386
172.674
175.896
179.059
182.169
185.233
188.257
191.249
194.213
197.154
200.076
202.982
205.873
208.749
211.609
214.452
217.273
220.068
222.831
225.556
228.235
230.86
233.423
235.912
238.316
240.621
242.814
244.881
246.807
248.575
250.17
251.574
252.773
253.75
254.49
254.975
255.19
255.119
254.747
254.059
253.042
251.683
249.972
247.901
245.463
242.655
239.477
235.928
232.013
227.74
223.117
218.152
212.855
207.239
201.316
195.104
188.62
181.881
174.912
167.736
160.385
152.894
145.296
137.624
129.91
122.187
114.49
106.853
99.309
91.885
84.615
77.534
70.683
64.119
57.878
51.984
46.449
41.275
36.463
32.024
27.949
24.219
20.83
17.786
15.116
12.877
11.098
9.79
8.943
8.518
8.5
8.906
9.75
11.052
12.834
15.101
17.895
21.29
25.305
29.914
35.034
40.51
46.229
52.118
58.117
64.193
70.291
76.318
82.199
87.876
93.271
98.319
102.904
106.856
110.089
112.584
114.392
115.649
116.446
116.819
116.811
116.452
115.783
114.865
113.726
112.364
110.807
109.1
107.334
105.654
104.142
102.82
101.668
100.615
99.626
98.721
97.907
97.182
96.552
96.027
95.664
95.562
95.774
96.297
97.065
97.963
98.893
99.816
100.699
101.469
102.127
102.709
103.318
104.22
105.653
107.703
110.379
113.632
117.111
120.366
122.939
124.042
122.988
119.365
112.897
103.735
92.81
81.409
70.795
62.641
58.564
60.002
68.402
84.364
107.14
135.236
167.116
200.9
234.409
265.033
289.475
305.08
310.684
305.97
290.666
264.542
227.835
181.934
129.79
74.603
18.743
-35.796
-86.906
-132.058
-168.607
-194.981
-211.203
-218.071
-216.438
-207.393
-192.128
-172.343
-150.624
-129.228
-109.693
-93.258
-80.662
-72.152
-68.165
-68.977
-73.869
-82.006
-92.442
-103.827
-115.378
-126.74
-137.21
-146.054
-153.069
-158.149
-161.552
-164.081
-166.081
-167.621
-168.956
-170.285
-171.699
-173.299
-174.926
-176.145
-176.748
-176.672
-175.868
-174.401
-172.299
-169.563
-166.281
-162.599
-158.63
-154.441
-150.045
-145.406
-140.504
-135.344
-129.927
-124.264
-118.354
-112.199
-105.813
-99.216
-92.431
-85.48
-78.377
-71.136
-63.77
-56.295
-48.737
-41.122
-33.478
-25.832
-18.209
-10.632
-3.128
4.278
11.563
18.705
25.688
32.492
39.102
45.499
51.669
57.598
63.27
68.674
73.796
78.626
83.152
87.367
91.264
94.837
98.086
101.007
103.601
105.868
107.811
109.432
110.736
111.723
112.397
112.76
112.816
112.572
112.033
111.203
110.081
108.682
107.017
105.096
102.934
100.527
97.866
94.967
91.847
88.482
84.856
80.956
76.76
72.295
67.609
62.682
57.473
52.104
46.712
41.221
35.642
30.004
24.016
18.479
14.169
9.99
5.613
-0.979
-12.205
-25.37
-38.673
-49.438
-53.992
-55.561
-56.876
-59.806
-67.443
-77.551
-87.86
-97.853
-106.14
-113.501
-120.944
-128.254
-135.546
-142.731
-149.584
-156.222
-162.735
-169.07
-175.199
-181.118
-186.805
-192.237
-197.392
-202.237
-206.733
-210.878
-214.671
-218.097
-221.15
-223.824
-226.112
-228.014
-229.533
-230.668
-231.42
-231.795
-231.798
-231.439
-230.727
-229.675
-228.296
-226.605
-224.618
-222.354
-219.832
-217.072
-214.095
-210.925
-207.585
-204.101
-200.496
-196.799
-193.035
-189.231
-185.415
-181.613
-177.851
-174.155
-170.552
-167.063
-163.714
-160.525
-157.519
-154.713
-152.126
-149.773
-147.668
-145.824
-144.25
-142.955
-141.944
-141.221
-140.789
-140.648
-140.797
-141.232
-141.948
-142.938
-144.194
-145.706
-147.461
-149.445
-151.645
-154.044
-156.623
-159.364
-162.248
-165.253
-168.358
-171.541
-174.778
-178.046
-181.322
-184.583
-187.806
-190.968
-194.05
-197.03
-199.892
-202.62
-205.197
-207.61
-209.847
-211.899
-213.756
-215.41
-216.855
-218.088
-219.104
-219.903
-220.485
-220.851
-221.004
-220.949
-220.691
-220.239
-219.597
-218.777
-217.786
-216.636
-215.34
-213.91
-212.36
-210.706
-208.963
-207.148
-205.279
-203.368
-201.426
-199.463
-197.481
-195.486
-193.484
-191.475
-189.46
-187.441
-185.42
-183.405
-181.405
-179.429
-177.476
-175.545
-173.633
-171.743
-169.88
-168.046
-166.241
-164.463
-162.702
-160.956
-159.222
-157.488
-155.735
-153.923
-151.996
-149.907
-147.621
-145.118
-142.376
-139.368
-136.058
-132.413
-128.438
-124.175
-119.682
-115.03
-110.285
-105.46
-100.612
-95.877
-91.327
-86.982
-82.761
-78.357
-73.509
-68.223
-62.527
-56.469
-50.302
-44.159
-38.358
-33.817
-31.342
-31.277
-33.742
-38.235
-43.698
-49.455
-54.507
-56.899
-54.739
-46.346
-30.441
-7.201
22.296
57.371
96.608
137.289
176.219
209.565
233.779
246.832
247.238
233.169
203.835
160.701
107.159
47.728
-13.809
-77.324
-143.843
-211.821
-276.981
-328.983
-356.445
-353.403
-319.028
-263.877
-203.886
-151.299
-115.468
-94.801
-80.933
-68.967
-54.89
-39.953
-29.683
-25.543
-27.496
-34.093
-41.463
-47.569
-51.534
-52.489
-50.559
-46.174
-39.699
-31.897
-23.712
-15.677
-8.152
-1.382
4.63
9.949
14.717
19.233
23.876
28.853
34.231
40.005
46.079
52.388
58.88
65.469
72.037
78.487
84.751
90.774
96.543
102.049
107.267
112.182
116.778
121.05
125.005
128.658
132.013
135.066
137.814
140.252
142.382
144.209
145.74
146.982
147.945
148.636
149.065
149.247
149.192
148.911
148.413
147.704
146.793
145.694
144.422
142.995
141.428
139.74
137.947
136.069
134.123
132.125
130.09
128.03
125.959
123.889
121.835
119.807
117.817
115.877
113.997
112.185
110.45
108.8
107.24
105.776
104.41
103.148
101.991
100.941
100
99.167
98.444
97.828
97.317
96.91
96.602
96.389
96.265
96.225
96.26
96.363
96.527
96.743
97.003
97.299
97.62
97.959
98.308
98.657
98.998
99.322
99.623
99.892
100.123
100.308
100.44
100.515
100.526
100.468
100.335
100.124
99.828
99.444
98.967
98.396
97.725
96.955
96.081
95.105
94.027
92.847
91.567
90.192
88.724
87.17
85.535
83.827
82.053
80.222
78.343
76.427
74.482
72.521
70.555
68.594
66.65
64.735
62.861
61.039
59.283
57.604
56.014
54.524
53.148
51.896
50.779
49.809
48.994
48.346
47.871
47.577
47.471
47.556
47.836
48.312
48.985
49.852
50.91
52.153
53.574
55.165
56.916
58.815
60.849
63.004
65.264
67.612
70.033
72.506
75.014
77.538
80.057
82.551
85.002
87.388
89.69
91.889
93.966
95.903
97.682
99.287
100.703
101.917
102.917
103.691
104.231
104.533
104.59
104.4
103.964
103.284
102.364
101.21
99.832
98.24
96.446
94.464
92.312
90.006
87.566
85.012
82.365
79.645
76.875
74.076
71.269
68.475
65.714
63.005
60.367
57.818
55.373
53.047
50.851
48.798
46.897
45.155
43.577
42.166
40.922
39.845
38.932
38.177
37.571
37.104
36.764
36.538
36.41
36.364
36.38
36.438
36.518
36.6
36.662
36.681
36.639
36.517
36.303
35.987
35.56
35.012
34.339
33.535
32.598
31.523
30.303
28.932
27.407
25.728
23.906
21.948
19.859
17.646
15.314
12.873
10.338
7.718
5.02
2.265
-0.519
-3.291
-5.985
-8.543
-10.914
-13.049
-14.915
-16.475
-17.695
-18.55
-19.014
-19.078
-18.741
-17.997
-16.85
-15.341
-13.505
-11.436
-9.283
-7.081
-4.8
-2.34
0.554
4.083
8.367
13.649
20.107
27.591
35.76
43.968
51.253
56.935
60.504
61.347
59.291
54.802
48.786
42.769
38.672
38.113
42.678
54.119
73.467
100.71
135.017
174.733
217.596
261.006
301.692
335.727
359.627
370.862
367.555
348.307
312.354
261.022
198.007
127.575
53.314
-24.319
-106.349
-189.891
-267.845
-329.211
-363.446
-367.312
-345.146
-307.458
-265.712
-227.18
-194.495
-166.165
-140.451
-117.714
-99.708
-88.567
-84.471
-85.547
-89.166
-92.729
-94.85
-94.846
-91.876
-85.606
-76.327
-64.752
-52.217
-40.103
-29.085
-19.603
-12.186
-7.04
-4.191
-3.47
-4.256
-5.922
-8.151
-10.728
-13.473
-16.237
-18.825
-21.107
-23.116
-24.89
-26.393
-27.52
-28.073
-27.923
-27.051
-25.48
-23.26
-20.423
-16.994
-13.046
-8.716
-4.15
0.563
5.391
10.347
15.422
20.558
25.684
30.72
35.651
40.511
45.314
50.055
54.741
59.403
64.108
68.976
74.063
79.338
84.757
90.261
95.819
101.45
107.149
112.892
118.632
124.302
129.869
135.333
140.656
145.765
150.576
154.968
158.908
162.469
165.699
168.643
171.323
173.718
175.841
177.732
179.416
180.913
182.225
183.33
184.249
185.037
185.751
186.466
187.188
187.851
188.412
188.843
189.123
189.259
189.24
189.028
188.617
188.024
187.265
186.369
185.34
184.152
182.791
181.235
179.492
177.602
175.592
173.483
171.295
169.044
166.75
164.449
162.154
159.864
157.579
155.299
153.031
150.796
148.608
146.477
144.415
142.423
140.509
138.678
136.937
135.284
133.722
132.248
130.861
129.569
128.375
127.28
126.286
125.39
124.591
123.888
123.276
122.75
122.304
121.928
121.616
121.361
121.153
120.984
120.842
120.719
120.601
120.478
120.338
120.167
119.951
119.679
119.336
118.91
118.386
117.75
116.993
116.105
115.073
113.89
112.544
111.025
109.327
107.447
105.373
103.091
100.593
97.867
94.921
91.767
88.396
84.798
81.006
77.047
72.943
68.729
64.393
59.903
55.294
50.625
45.795
40.685
35.394
29.929
24.286
18.773
12.624
5.096
-2.7
-10.414
-16.022
-17.105
-16.297
-15.351
-16.883
-24.496
-34.968
-45.569
-54.423
-58.439
-59.802
-60.724
-61.687
-64.038
-66.977
-69.484
-71.743
-73.62
-75.181
-76.628
-77.829
-78.678
-79.216
-79.455
-79.39
-79.032
-78.4
-77.508
-76.39
-75.082
-73.591
-71.923
-70.099
-68.138
-66.058
-63.879
-61.618
-59.291
-56.918
-54.52
-52.117
-49.731
-47.382
-45.09
-42.876
-40.76
-38.763
-36.902
-35.196
-33.659
-32.3
-31.126
-30.147
-29.369
-28.798
-28.439
-28.292
-28.361
-28.651
-29.172
-29.929
-30.928
-32.167
-33.643
-35.35
-37.286
-39.452
-41.841
-44.442
-47.241
-50.222
-53.379
-56.707
-60.191
-63.799
-67.483
-71.195
-74.901
-78.572
-82.186
-85.731
-89.187
-92.54
-95.808
-99.012
-102.202
-105.454
-108.789
-112.207
-115.715
-119.304
-123.045
-127.101
-131.466
-135.987
-140.544
-144.934
-149.118
-153.326
-157.468
-161.147
-164.332
-167.215
-170.18
-174.107
-179.297
-185.166
-191.562
-198.605
-205.829
-212.748
-218.185
-219.626
-215.586
-205.911
-191.057
-172.825
-153.15
-132.597
-109.799
-83.361
-54.412
-28.096
-15.456
-27.65
-68.055
-132.041
-207.363
-279.807
-341.692
-391.284
-429.677
-458.557
-477.953
-485.994
-481.3
-465.136
-439.577
-408.042
-375.521
-345.015
-318.099
-296.39
-280.334
-269.822
-265.122
-264.921
-266.457
-268.156
-269.173
-268.827
-267.211
-264.203
-259.152
-252.437
-245.299
-238.428
-232.216
-226.775
-221.711
-216.916
-212.691
-208.969
-205.398
-201.748
-197.773
-193.402
-188.814
-184.075
-179.132
-173.987
-168.66
-163.193
-157.699
-152.257
-146.896
-141.663
-136.585
-131.678
-126.967
-122.463
-118.161
-114.052
-110.117
-106.331
-102.683
-99.174
-95.807
-92.585
-89.497
-86.531
-83.672
-80.906
-78.227
-75.623
-73.081
-70.588
-68.14
-65.733
-63.368
-61.05
-58.776
-56.544
-54.35
-52.191
-50.064
-47.969
-45.902
-43.863
-41.851
-39.869
-37.921
-36.015
-34.155
-32.349
-30.601
-28.919
-27.309
-25.777
-24.329
-22.971
-21.709
-20.547
-19.493
-18.554
-17.735
-17.042
-16.483
-16.061
-15.782
-15.649
-15.667
-15.836
-16.159
-16.637
-17.271
-18.059
-19.003
-20.098
-21.342
-22.731
-24.259
-25.917
-27.698
-29.589
-31.578
-33.652
-35.798
-37.998
-40.237
-42.499
-44.768
-47.026
-49.256
-51.439
-53.557
-55.59
-57.518
-59.322
-60.981
-62.476
-63.788
-64.899
-65.789
-66.444
-66.846
-66.979
-66.83
-66.383
-65.626
-64.549
-63.141
-61.396
-59.306
-56.871
-54.089
-50.964
-47.501
-43.706
-39.59
-35.167
-30.449
-25.45
-20.187
-14.674
-8.929
-2.972
3.177
9.497
15.964
22.553
29.232
35.968
42.729
49.484
56.202
62.856
69.416
75.852
82.138
88.254
94.176
99.88
105.333
110.493
115.336
119.853
124.045
127.925
131.506
134.793
137.809
140.586
143.142
145.489
147.611
149.466
151.037
152.326
153.356
154.176
154.811
155.255
155.502
155.541
155.354
154.944
154.276
153.28
151.94
150.285
148.397
146.429
144.491
142.648
140.952
139.422
138.102
137.072
136.391
136.108
136.287
136.982
138.296
140.387
143.328
147.12
151.698
156.9
162.613
168.772
175.307
182.166
189.28
196.56
203.947
211.408
218.881
226.287
233.504
240.355
246.734
252.594
257.934
262.819
267.286
271.334
274.982
278.244
281.125
283.631
285.737
287.386
288.551
289.22
289.402
289.145
288.465
287.359
285.819
283.81
281.306
278.293
274.742
270.631
265.963
260.745
255.003
248.794
242.174
235.209
227.991
220.577
213.013
205.34
197.578
189.752
181.902
174.05
166.216
158.426
150.687
143.025
135.487
128.076
120.768
113.504
106.174
98.712
91.108
83.353
75.45
67.427
59.301
51.139
43.057
35.131
27.436
20.037
12.94
6.222
0.005
-5.579
-10.33
-14.068
-16.687
-18.049
-17.997
-16.471
-13.379
-8.63
-2.322
5.43
14.422
24.266
34.678
45.468
56.276
66.641
76.38
85.554
94.667
104.676
116.187
129.414
144.678
162.339
182.172
203.23
223.665
240.87
252.752
257.837
254.421
240.701
215.744
180.481
137.879
91.423
43.377
-6.998
-61.398
-118.188
-171.96
-213.022
-231.467
-223.462
-192.654
-149.126
-103.827
-64.146
-32.115
-5.38
17.32
35.253
46.953
50.324
45.343
34.269
19.235
2.416
-13.805
-27.789
-38.447
-45.013
-47.572
-46.85
-43.448
-38.099
-31.886
-25.602
-19.776
-14.827
-10.775
-7.446
-4.736
-2.404
-0.095
2.369
5.068
8.038
11.176
14.386
17.599
20.686
23.509
26.003
28.141
29.927
31.403
32.591
33.495
34.132
34.518
34.665
34.58
34.265
33.712
32.922
31.907
30.682
29.265
27.671
25.913
24.008
21.971
19.823
17.581
15.262
12.884
10.465
8.027
5.589
3.174
0.801
-1.511
-3.743
-5.877
-7.899
-9.798
-11.564
-13.191
-14.676
-16.016
-17.211
-18.266
-19.184
-19.971
-20.635
-21.183
-21.628
-21.981
-22.255
-22.467
-22.633
-22.77
-22.897
-23.033
-23.199
-23.413
-23.696
-24.065
-24.54
-25.14
-25.881
-26.78
-27.852
-29.111
-30.571
-32.242
-34.133
-36.25
-38.599
-41.181
-43.997
-47.043
-50.316
-53.81
-57.514
-61.42
-65.515
-69.786
-74.216
-78.79
-83.489
-88.294
-93.186
-98.142
-103.141
-108.163
-113.183
-118.181
-123.135
-128.023
-132.823
-137.517
-142.084
-146.506
-150.766
-154.849
-158.74
-162.425
-165.894
-169.137
-172.145
-174.913
-177.437
-179.713
-181.742
-183.523
-185.06
-186.357
-187.419
-188.254
-188.869
-189.275
-189.48
-189.498
-189.339
-189.017
-188.544
-187.934
-187.201
-186.357
-185.417
-184.393
-183.296
-182.14
-180.934
-179.688
-178.412
-177.114
-175.8
-174.476
-173.146
-171.815
-170.483
-169.152
-167.821
-166.488
-165.151
-163.805
-162.446
-161.068
-159.664
-158.227
-156.75
-155.222
-153.636
-151.982
-150.249
-148.428
-146.508
-144.481
-142.337
-140.067
-137.664
-135.121
-132.432
-129.594
-126.602
-123.455
-120.153
-116.696
-113.089
-109.335
-105.442
-101.416
-97.269
-93.011
-88.658
-84.222
-79.721
-75.171
-70.59
-65.999
-61.416
-56.864
-52.365
-47.943
-43.622
-39.428
-35.387
-31.527
-27.874
-24.454
-21.293
-18.417
-15.851
-13.618
-11.74
-10.239
-9.134
-8.443
-8.184
-8.37
-9.013
-10.123
-11.706
-13.767
-16.307
-19.324
-22.816
-26.778
-31.202
-36.08
-41.402
-47.154
-53.321
-59.886
-66.829
-74.126
-81.751
-89.673
-97.86
-106.28
-114.9
-123.683
-132.595
-141.598
-150.657
-159.74
-168.815
-177.85
-186.813
-195.669
-204.389
-212.943
-221.3
-229.426
-237.288
-244.847
-252.071
-258.935
-265.41
-271.469
-277.08
-282.201
-286.792
-290.826
-294.274
-297.109
-299.314
-300.876
-301.812
-302.17
-302.002
-301.376
-300.357
-298.999
-297.362
-295.499
-293.454
-291.285
-289.052
-286.805
-284.594
-282.448
-280.357
-278.292
-276.158
-273.831
-271.132
-267.781
-263.622
-258.611
-252.808
-246.521
-240.044
-233.481
-227.08
-221.196
-215.657
-210.038
-203.569
-194.731
-182.385
-166.006
-144.894
-118.773
-88.603
-55.829
-22.721
6.891
29.585
42.524
42.499
28.346
1.581
-36.224
-83.434
-139.368
-204.965
-278.084
-350.865
-410.818
-446.078
-450.605
-426.841
-386.199
-340.526
-297.473
-260.717
-228.416
-198.562
-172.079
-151.118
-138.178
-133.96
-136.666
-143.088
-150.171
-156.191
-160.115
-160.967
-158.192
-151.7
-141.978
-130.396
-118.422
-106.816
-95.967
-86.142
-77.388
-69.702
-63.015
-56.91
-50.858
-44.594
-37.986
-31.011
-23.767
-16.288
-8.561
-0.648
7.368
15.429
23.462
31.429
39.321
47.096
54.72
62.174
69.428
76.471
83.308
89.941
96.382
102.645
108.725
114.617
120.312
125.805
131.099
136.198
141.105
145.831
150.386
154.781
159.028
163.138
167.111
170.949
174.651
178.212
181.63
184.907
188.042
191.037
193.898
196.623
199.215
201.676
204.003
206.197
208.261
210.183
211.959
213.581
215.039
216.341
217.496
218.505
219.371
220.1
220.692
221.161
221.522
221.762
221.872
221.842
221.656
221.327
220.867
220.284
219.592
218.78
217.829
216.749
215.546
214.207
212.729
211.089
209.258
207.278
205.191
203.027
200.832
198.605
196.346
194.073
191.798
189.547
187.352
185.214
183.132
181.149
179.289
177.599
176.136
174.857
173.719
172.703
171.77
170.924
170.171
169.483
168.84
168.233
167.645
167.077
166.538
