Name
Date of Birth,"Dec 28, 2003"
Recorded Date,2024-09-19 10:10:33 -0500
Classification,Poor Recording
Symptoms,
Software Version,1.90
Device,"Watch4,4"
Sample Rate,512.711 hertz


Lead,Lead I
Unit,µV

45.082
46.982
48.863
50.716
52.532
54.304
56.021
57.677
59.262
60.769
62.191
63.519
64.747
65.868
66.876
67.764
68.527
69.16
69.659
70.019
70.237
70.31
70.235
70.011
69.635
69.106
68.425
67.59
66.602
65.461
64.168
62.725
61.132
59.391
57.504
55.47
53.293
50.972
48.511
45.909
43.168
40.291
37.278
34.132
30.855
27.449
23.918
20.263
16.488
12.598
8.596
4.486
0.274
-4.036
-8.436
-12.922
-17.485
-22.119
-26.815
-31.567
-36.366
-41.201
-46.062
-50.938
-55.817
-60.688
-65.54
-70.358
-75.124
-79.829
-84.462
-89.01
-93.462
-97.799
-101.993
-106.036
-109.92
-113.61
-117.076
-120.293
-123.229
-125.883
-128.27
-130.361
-132.117
-133.6
-134.886
-135.914
-136.684
-137.204
-137.287
-137.424
-138.098
-138.616
-138.773
-137.303
-132.695
-126.633
-120.243
-115.198
-113.796
-114.028
-114.191
-113.125
-108.905
-102.936
-96.646
-90.365
-84.974
-79.994
-74.808
-69.559
-64.189
-58.762
-53.432
-48.136
-42.827
-37.55
-32.33
-27.18
-22.12
-17.175
-12.365
-7.719
-3.268
0.981
5.018
8.831
12.408
15.742
18.824
21.649
24.216
26.52
28.561
30.339
31.856
33.114
34.12
34.878
35.398
35.686
35.753
35.609
35.266
34.735
34.029
33.16
32.141
30.985
29.705
28.313
26.823
25.246
23.595
21.882
20.118
18.315
16.483
14.631
12.769
10.903
9.041
7.19
5.354
3.538
1.746
-0.019
-1.754
-3.458
-5.129
-6.768
-8.375
-9.95
-11.494
-13.009
-14.498
-15.962
-17.404
-18.823
-20.221
-21.6
-22.958
-24.296
-25.614
-26.911
-28.184
-29.433
-30.656
-31.849
-33.01
-34.133
-35.214
-36.245
-37.221
-38.133
-38.972
-39.73
-40.398
-40.966
-41.426
-41.766
-41.978
-42.051
-41.973
-41.735
-41.325
-40.733
-39.946
-38.956
-37.752
-36.328
-34.676
-32.791
-30.67
-28.308
-25.704
-22.857
-19.767
-16.435
-12.861
-9.049
-5.004
-0.733
3.754
8.447
13.333
18.395
23.615
28.978
34.463
40.054
45.734
51.483
57.285
63.124
68.98
74.832
80.658
86.432
92.129
97.725
103.195
108.519
113.676
118.647
123.416
127.973
132.306
136.398
140.228
143.762
146.976
149.856
152.392
154.58
156.419
157.908
159.061
159.916
160.506
160.861
160.993
160.892
160.55
159.98
159.198
158.236
157.113
155.807
154.31
152.631
150.777
148.765
146.564
144.066
141.161
137.759
133.792
129.262
124.147
118.35
111.856
104.735
97.154
89.473
82.011
74.908
68.371
62.654
57.777
53.69
50.102
46.197
41.299
34.982
26.699
16.169
3.719
-10.072
-24.048
-36.294
-45.174
-49.155
-46.458
-35.929
-17.265
9.193
42.045
79.062
118.042
156.223
190.26
217.076
233.916
238.741
230.323
208.434
173.992
128.79
75.565
15.585
-51.739
-125.202
-201.776
-273.938
-330.202
-364.264
-374.989
-366.773
-349.775
-330.378
-311.568
-294.916
-278.765
-262.933
-248.834
-237.424
-230.355
-228.712
-231.969
-238.769
-247.343
-256.073
-264.117
-271.257
-277.249
-281.638
-284.28
-285.426
-285.673
-285.841
-286.359
-287.221
-288.401
-289.925
-291.766
-293.886
-296.088
-297.984
-299.363
-300.178
-300.427
-300.165
-299.422
-298.178
-296.46
-294.357
-291.934
-289.252
-286.36
-283.271
-280.022
-276.647
-273.167
-269.604
-265.967
-262.25
-258.447
-254.549
-250.543
-246.424
-242.194
-237.847
-233.381
-228.789
-224.063
-219.194
-214.173
-208.989
-203.633
-198.095
-192.367
-186.447
-180.333
-174.025
-167.524
-160.832
-153.945
-146.862
-139.583
-132.105
-124.43
-116.559
-108.494
-100.24
-91.803
-83.192
-74.419
-65.492
-56.426
-47.23
-37.92
-28.508
-19.009
-9.439
0.187
9.852
19.539
29.231
38.908
48.553
58.147
67.67
77.106
86.435
95.64
104.703
113.608
122.337
130.876
139.209
147.322
155.201
162.835
170.214
177.327
184.167
190.73
197.01
203.006
208.717
214.145
219.293
224.164
228.765
233.103
237.188
241.028
244.636
248.025
251.207
254.199
257.015
259.672
262.188
264.581
266.868
269.069
271.202
273.287
275.343
277.389
279.443
281.525
283.652
285.843
288.113
290.479
292.955
295.555
298.29
301.172
304.209
307.41
310.78
314.323
318.043
321.94
326.014
330.263
334.683
339.268
344.013
348.908
353.944
359.11
364.395
369.784
375.264
380.818
386.432
392.088
397.769
403.457
409.134
414.781
420.38
425.913
431.36
436.703
441.925
447.009
451.938
456.696
461.269
465.643
469.806
473.747
477.458
480.928
484.152
487.124
489.839
492.294
494.489
496.424
498.1
499.521
500.691
501.616
502.305
502.764
503.003
503.032
502.861
502.501
501.965
501.263
500.407
499.411
498.287
497.047
495.705
494.273
492.763
491.186
489.554
487.877
486.165
484.425
482.664
480.888
479.103
477.314
475.523
473.732
471.939
470.144
468.343
466.533
464.704
462.846
460.95
459.002
456.993
454.908
452.735
450.46
448.071
445.558
442.908
440.11
437.151
434.014
430.688
427.159
423.413
419.435
415.209
410.72
405.958
400.92
395.601
389.994
384.091
377.881
371.361
364.541
357.428
350.033
342.373
334.469
326.358
318.097
309.736
301.321
292.892
284.476
276.116
267.852
259.71
251.721
243.897
236.227
228.709
221.348
214.115
206.979
199.887
192.746
185.491
178.068
170.417
162.499
154.279
145.727
136.856
127.688
118.253
108.624
98.886
89.108
79.404
69.934
60.929
52.729
45.728
40.288
36.699
35.2
36.017
39.185
44.461
51.382
59.224
67.217
74.852
81.877
88.09
93.648
99.197
105.61
114.225
126.601
143.944
166.939
195.937
230.126
267.381
305.508
342.279
376.9
409.617
438.945
460.81
467.682
452.775
414.513
356.59
287.994
215.963
142.287
67.965
-6.725
-76.5
-130.446
-162.121
-168.607
-153.771
-127.667
-96.515
-65.814
-38.014
-12.496
8.669
25.559
37.987
45.145
48.613
48.018
43.375
36.058
26.617
16.967
9.024
3.297
0.121
-0.654
0.304
2.491
5.385
8.174
10.271
11.472
11.673
10.986
9.695
8.004
6.174
4.567
3.381
2.686
2.525
2.84
3.567
4.697
6.169
7.911
9.896
12.09
14.468
17.023
19.715
22.507
25.38
28.31
31.289
34.318
37.387
40.497
43.654
46.856
50.099
53.381
56.686
60.007
63.34
66.68
70.027
73.377
76.722
80.056
83.37
86.651
89.888
93.062
96.157
99.157
102.048
104.819
107.456
109.949
112.284
114.449
116.434
118.226
119.815
121.189
122.337
123.249
123.92
124.343
124.513
124.426
124.08
123.474
122.608
121.485
120.105
118.473
116.593
114.471
112.114
109.53
106.729
103.722
100.52
97.134
93.58
89.871
86.021
82.045
77.959
73.78
69.522
65.204
60.842
56.451
52.049
47.652
43.275
38.933
34.64
30.41
26.256
22.188
18.219
14.356
10.61
6.988
3.496
0.141
-3.073
-6.141
-9.061
-11.832
-14.453
-16.923
-19.243
-21.417
-23.446
-25.334
-27.086
-28.706
-30.199
-31.573
-32.832
-33.985
-35.037
-35.997
-36.87
-37.665
-38.387
-39.044
-39.64
-40.182
-40.675
-41.123
-41.532
-41.903
-42.241
-42.548
-42.826
-43.077
-43.302
-43.501
-43.675
-43.822
-43.942
-44.033
-44.094
-44.121
-44.112
-44.063
-43.971
-43.832
-43.642
-43.397
-43.091
-42.72
-42.279
-41.765
-41.172
-40.496
-39.735
-38.884
-37.941
-36.903
-35.77
-34.538
-33.209
-31.781
-30.255
-28.632
-26.913
-25.1
-23.194
-21.2
-19.121
-16.961
-14.724
-12.417
-10.045
-7.615
-5.133
-2.609
-0.049
2.536
5.137
7.745
10.349
12.938
15.501
18.027
20.505
22.922
25.269
27.535
29.708
31.778
33.737
35.573
37.279
38.844
40.26
41.517
42.608
43.524
44.258
44.802
45.15
45.296
45.236
44.966
44.483
43.785
42.872
41.741
40.396
38.837
37.067
35.091
32.914
30.542
27.986
25.255
22.36
19.312
16.123
12.804
9.368
5.828
2.201
-1.499
-5.255
-9.047
-12.853
-16.646
-20.405
-24.107
-27.73
-31.256
-34.662
-37.931
-41.044
-43.987
-46.747
-49.313
-51.676
-53.825
-55.761
-57.481
-58.989
-60.286
-61.373
-62.241
-62.886
-63.299
-63.471
-63.391
-63.044
-62.413
-61.48
-60.224
-58.618
-56.624
-54.216
-51.383
-48.127
-44.473
-40.464
-36.143
-31.605
-26.995
-22.38
-17.761
-13.073
-8.159
-2.956
2.475
8.156
14.17
20.377
26.461
31.81
35.529
37.119
36.471
33.429
27.858
19.931
10.091
-0.505
-10.073
-17.45
-21.942
-22.739
-19.12
-10.507
3.569
22.66
45.296
70.576
97.157
122.528
145.067
163.266
176.155
184.917
188.255
181.945
162.161
124.851
71.072
7.396
-59.84
-124.062
-181.582
-231.845
-273.332
-305.098
-326.383
-336.06
-334.628
-323.486
-304.412
-280.434
-254.741
-229.666
-207.197
-188.558
-174.245
-164.762
-160.169
-159.521
-161.476
-164.788
-168.149
-170.807
-172.414
-172.372
-170.399
-166.757
-161.874
-156.381
-151.034
-146.156
-141.86
-138.395
-135.794
-133.947
-132.752
-131.903
-131.051
-130.067
-128.895
-127.487
-125.891
-124.129
-122.203
-120.193
-118.183
-116.212
-114.322
-112.527
-110.829
-109.261
-107.849
-106.599
-105.52
-104.598
-103.814
-103.153
-102.591
-102.094
-101.639
-101.197
-100.744
-100.263
-99.729
-99.118
-98.406
-97.565
-96.57
-95.4
-94.034
-92.454
-90.646
-88.599
-86.307
-83.766
-80.974
-77.926
-74.619
-71.053
-67.228
-63.15
-58.824
-54.256
-49.459
-44.446
-39.234
-33.841
-28.286
-22.589
-16.772
-10.856
-4.864
1.181
7.255
13.336
19.397
25.416
31.368
37.228
42.974
48.582
54.031
59.299
64.367
69.215
73.827
78.185
82.276
86.084
89.599
92.809
95.706
98.284
100.537
102.462
104.057
105.325
106.268
106.89
107.197
107.197
106.899
106.312
105.447
104.318
102.936
101.315
99.471
97.417
95.171
92.746
90.161
87.431
84.572
81.6
78.531
75.382
72.167
68.901
65.598
62.272
58.937
55.605
52.286
48.991
45.73
42.511
39.34
36.222
33.163
30.166
27.232
24.363
21.557
18.815
16.133
13.508
10.937
8.413
5.932
3.486
1.069
-1.328
-3.712
-6.092
-8.476
-10.872
-13.291
-15.739
-18.226
-20.76
-23.348
-25.998
-28.717
-31.511
-34.386
-37.347
-40.396
-43.537
-46.77
-50.097
-53.516
-57.024
-60.619
-64.296
-68.048
-71.868
-75.748
-79.679
-83.649
-87.647
-91.661
-95.676
-99.677
-103.65
-107.578
-111.445
-115.235
-118.929
-122.513
-125.968
-129.278
-132.428
-135.401
-138.183
-140.76
-143.117
-145.243
-147.126
-148.758
-150.129
-151.232
-152.064
-152.621
-152.901
-152.903
-152.631
-152.087
-151.277
-150.206
-148.884
-147.319
-145.525
-143.515
-141.304
-138.908
-136.347
-133.641
-130.811
-127.881
-124.873
-121.812
-118.722
-115.63
-112.56
-109.537
-106.587
-103.735
-101.005
-98.422
-96.01
-93.79
-91.784
-90.012
-88.493
-87.244
-86.281
-85.615
-85.26
-85.226
-85.52
-86.152
-87.128
-88.45
-90.121
-92.139
-94.501
-97.198
-100.217
-103.541
-107.151
-111.026
-115.144
-119.483
-124.022
-128.74
-133.617
-138.636
-143.776
-149.016
-154.335
-159.712
-165.126
-170.563
-176.004
-181.431
-186.829
-192.176
-197.451
-202.632
-207.685
-212.566
-217.225
-221.602
-225.645
-229.31
-232.545
-235.295
-237.501
-239.109
-240.099
-240.475
-240.249
-239.453
-238.111
-236.271
-234.066
-231.575
-228.819
-225.776
-222.278
-218.168
-213.426
-207.955
-201.595
-194.468
-186.82
-179.121
-172.329
-167.195
-164.152
-163.805
-166.559
-172.183
-180.141
-189.185
-197.144
-202.242
-203.006
-197.507
-184.142
-162.183
-131.351
-93.052
-50.545
-5.902
39.078
82.504
123.788
159.498
184.019
192.585
180.859
149.637
104.52
51.253
-5.691
-66.479
-132.455
-201.818
-267.89
-318.53
-345.087
-345.236
-323.37
-290.736
-255.634
-222.074
-191.351
-161.303
-131.65
-104.456
-81.912
-66.247
-58.104
-56.558
-60.005
-66.495
-74.351
-81.941
-87.891
-91.503
-92.434
-90.719
-86.89
-81.583
-75.489
-69.521
-64.315
-60.123
-57.072
-55.056
-53.852
-53.296
-53.128
-53.001
-52.724
-52.224
-51.484
-50.591
-49.605
-48.535
-47.437
-46.371
-45.377
-44.496
-43.747
-43.131
-42.656
-42.326
-42.142
-42.103
-42.198
-42.405
-42.703
-43.065
-43.473
-43.913
-44.371
-44.831
-45.279
-45.695
-46.058
-46.346
-46.534
-46.602
-46.528
-46.292
-45.875
-45.263
-44.443
-43.406
-42.142
-40.639
-38.884
-36.868
-34.581
-32.017
-29.171
-26.037
-22.615
-18.907
-14.917
-10.649
-6.113
-1.315
3.735
9.025
14.545
20.281
26.218
32.34
38.631
45.071
51.642
58.323
65.091
71.924
78.799
85.695
92.586
99.449
106.26
112.996
119.634
126.151
132.524
138.732
144.755
150.572
156.165
161.517
166.61
171.432
175.968
180.207
184.139
187.756
191.049
194.014
196.645
198.941
200.9
202.521
203.807
204.761
205.387
205.692
205.684
205.37
204.762
203.87
202.707
201.285
199.618
197.721
195.61
193.298
190.803
188.14
185.325
182.375
179.307
176.135
172.876
169.546
166.159
162.731
159.275
155.806
152.336
148.879
145.446
142.05
138.699
135.406
132.178
129.025
125.954
122.972
120.085
117.299
114.617
112.044
109.582
107.235
105.004
102.89
100.895
99.02
97.264
95.628
94.111
92.712
91.43
90.265
89.216
88.28
87.457
86.746
86.146
85.656
85.276
85.004
84.841
84.785
84.837
84.996
85.263
85.637
86.121
86.715
87.421
88.241
89.178
90.233
91.411
92.713
94.142
95.701
97.392
99.217
101.18
103.285
105.532
107.927
110.471
113.168
116.021
119.031
122.201
125.532
129.023
132.674
136.486
140.457
144.586
148.872
153.312
157.904
162.643
167.526
172.546
177.695
182.962
188.34
193.816
199.38
205.019
210.72
216.47
222.257
228.068
233.887
239.697
245.483
251.226
256.907
262.508
268.005
273.379
278.608
283.675
288.561
293.25
297.724
301.969
305.969
309.711
313.182
316.369
319.257
321.833
324.086
326.011
327.602
328.858
329.777
330.357
330.602
330.521
330.116
329.386
328.328
326.928
325.184
323.102
320.688
317.952
314.914
311.605
308.071
304.37
300.548
296.641
292.673
288.656
284.61
280.56
276.529
272.564
268.703
264.987
261.479
258.222
255.215
252.421
249.74
247.04
244.231
241.215
237.882
234.218
230.281
226.212
222.262
218.622
215.374
212.647
210.597
209.167
208.138
207.106
205.451
202.766
198.919
193.679
186.765
178.317
168.831
159.283
151.193
145.809
144.074
147.148
156.189
171.98
194.862
224.152
258.396
295.708
333.394
369.227
401.245
427.96
449.439
463.624
466.378
454.279
424.156
377.443
320.281
257.263
191.355
124.077
55.963
-8.369
-60.273
-92.686
-101.503
-87.256
-56.358
-15.61
28.702
70.512
106.519
134.035
152.046
162.025
165.336
164.229
159.72
150.801
137.754
121.067
102.246
84.587
69.927
58.844
51.549
47.32
45.408
45.476
46.806
48.359
49.521
49.925
49.386
48.079
46.195
43.844
41.262
38.746
36.439
34.411
32.664
31.108
29.668
28.294
26.903
25.42
23.815
22.093
20.279
18.416
16.531
14.641
12.766
10.935
9.164
7.464
5.835
4.274
2.782
1.369
0.042
-1.194
-2.337
-3.383
-4.33
-5.172
-5.904
-6.527
-7.042
-7.45
-7.754
-7.955
-8.055
-8.057
-7.965
-7.782
-7.515
-7.167
-6.747
-6.266
-5.734
-5.167
-4.58
-3.986
-3.404
-2.849
-2.339
-1.889
-1.514
-1.231
-1.054
-0.997
-1.077
-1.306
-1.698
-2.267
-3.024
-3.982
-5.15
-6.539
-8.154
-10.003
-12.092
-14.423
-17
-19.825
-22.896
-26.212
-29.772
-33.57
-37.599
-41.853
-46.321
-50.992
-55.852
-60.89
-66.088
-71.432
-76.904
-82.488
-88.165
-93.918
-99.727
-105.574
-111.44
-117.307
-123.155
-128.966
-134.722
-140.405
-145.998
-151.484
-156.849
-162.076
-167.152
-172.063
-176.798
-181.343
-185.689
-189.826
-193.745
-197.44
-200.904
-204.132
-207.121
-209.869
-212.373
-214.635
-216.655
-218.434
-219.977
-221.287
-222.369
-223.228
-223.87
-224.302
-224.532
-224.568
-224.418
-224.091
-223.596
-222.943
-222.141
-221.2
-220.131
-218.942
-217.644
-216.247
-214.759
-213.192
-211.554
-209.855
-208.104
-206.31
-204.481
-202.625
-200.75
-198.861
-196.966
-195.071
-193.179
-191.296
-189.426
-187.573
-185.74
-183.928
-182.141
-180.379
-178.642
-176.931
-175.244
-173.578
-171.932
-170.302
-168.684
-167.074
-165.466
-163.856
-162.238
-160.608
-158.958
-157.283
-155.575
-153.826
-152.029
-150.177
-148.262
-146.276
-144.213
-142.066
-139.829
-137.496
-135.062
-132.521
-129.868
-127.099
-124.21
-121.197
-118.057
-114.79
-111.395
-107.874
-104.23
-100.469
-96.599
-92.628
-88.568
-84.431
-80.228
-75.974
-71.683
-67.367
-63.045
-58.732
-54.446
-50.205
-46.031
-41.95
-37.987
-34.174
-30.535
-27.097
-23.889
-20.933
-18.257
-15.883
-13.83
-12.119
-10.774
-9.823
-9.299
-9.232
-9.636
-10.518
-11.875
-13.688
-15.94
-18.611
-21.663
-25.071
-28.819
-32.904
-37.347
-42.171
-47.381
-52.97
-58.908
-65.161
-71.721
-78.584
-85.752
-93.25
-101.095
-109.315
-117.965
-127.075
-136.628
-146.571
-156.782
-167.106
-177.412
-187.59
-197.554
-207.24
-216.552
-225.391
-233.672
-241.281
-248.126
-254.107
-259.079
-262.932
-265.635
-267.202
-267.771
-267.578
-266.769
-265.401
-263.443
-260.746
-257.206
-252.813
-247.463
-240.991
-233.461
-225.2
-216.85
-209.365
-203.488
-199.585
-198.019
-199.103
-202.64
-207.989
-213.946
-218.708
-220.744
-218.977
-212.212
-199.294
-179.734
-153.653
-122.013
-86.611
-49.172
-11.494
24.006
54.58
77.555
90.669
92.5
82.021
58.875
24.22
-20.069
-71.415
-127.715
-189.116
-254.941
-321.854
-384.542
-434.891
-465.759
-475.113
-463.6
-434.754
-395.831
-353.034
-313.396
-284.594
-268.117
-262.876
-264.833
-266.285
-263.919
-257.014
-246.355
-235.677
-226.716
-219.287
-213.134
-207.152
-200.904
-195.261
-190.973
-188.461
-187.909
-189.09
-191.682
-195.538
-200.505
-206.163
-212.095
-218.022
-223.702
-229.075
-234.159
-238.854
-243.052
-246.689
-249.661
-251.916
-253.452
-254.235
-254.261
-253.588
-252.291
-250.511
-248.423
-246.136
-243.72
-241.22
-238.642
-236.005
-233.338
-230.65
-227.959
-225.281
-222.625
-220.006
-217.436
-214.903
-212.38
-209.818
-207.146
-204.318
-201.307
-198.093
-194.67
-191.037
-187.19
-183.139
-178.898
-174.475
-169.875
-165.099
-160.144
-155.015
-149.721
-144.273
-138.692
-132.992
-127.187
-121.292
-115.318
-109.276
-103.176
-97.025
-90.827
-84.588
-78.317
-72.023
-65.719
-59.416
-53.125
-46.86
-40.635
-34.461
-28.352
-22.319
-16.374
-10.527
-4.791
0.824
6.305
11.642
16.824
21.839
26.676
31.326
35.779
40.025
44.055
47.864
51.444
54.79
57.897
60.761
63.378
65.746
67.863
69.728
71.341
72.704
73.819
74.69
75.321
75.719
75.892
75.847
75.593
75.139
74.497
73.678
72.694
71.558
70.282
68.883
67.373
65.77
64.087
62.342
60.55
58.726
56.886
55.046
53.22
51.424
49.67
47.972
46.344
44.798
43.346
41.997
40.762
39.65
38.669
37.825
37.124
36.571
36.17
35.923
35.832
35.896
36.117
36.491
37.016
37.689
38.503
39.454
40.535
41.74
43.06
44.487
46.012
47.628
49.326
51.097
52.931
54.82
56.754
58.727
60.729
62.753
64.791
66.837
68.886
70.93
72.966
74.99
76.996
78.983
80.946
82.885
84.801
86.694
88.568
90.424
92.268
94.102
95.934
97.77
99.614
101.474
103.352
105.256
107.196
109.182
111.223
113.327
115.496
117.733
120.045
122.433
124.903
127.458
130.095
132.819
135.635
138.548
141.568
144.695
147.926
151.253
154.663
158.156
161.74
165.423
169.218
173.116
177.086
181.107
185.168
189.254
193.368
197.475
201.472
205.365
209.246
213.188
217.312
221.583
225.75
229.706
233.502
236.989
239.916
241.995
242.77
242.221
240.849
238.912
236.466
233.74
230.961
228.487
226.971
226.453
226.312
226.18
225.838
225.036
223.695
221.551
218.047
213.133
207.26
200.727
193.79
186.632
179.222
171.677
164.295
157.136
150.062
142.983
135.789
128.459
121.102
113.759
106.419
99.126
91.949
84.969
78.283
71.94
65.96
60.377
55.234
50.592
46.502
42.97
39.998
37.57
35.649
34.227
33.243
32.575
32.18
32.051
32.245
32.963
34.339
36.4
39.271
43.009
47.436
52.29
57.05
60.936
63.441
64.185
62.72
58.998
53.445
46.818
40.429
35.84
34.287
37.072
45.612
60.744
82.662
110.818
143.839
180.048
217.693
254.399
287.287
313.648
331.095
337.963
333.306
316.376
287.556
249.003
203.362
153.666
101.468
45.964
-11.75
-68.44
-118.115
-151.699
-163.584
-153.45
-125.164
-87.49
-49.249
-15.207
11.853
31.955
47.616
59.165
66.793
71.23
71.214
67.005
59.97
50.764
41.418
33.712
28.111
25.032
24.365
25.47
27.871
31.056
34.264
36.975
38.995
40.228
40.738
40.706
40.27
39.631
39.09
38.817
38.86
39.221
39.831
40.636
41.623
42.745
43.926
45.112
46.255
47.322
48.315
49.232
50.063
50.804
51.451
52.008
52.491
52.915
53.289
53.613
53.885
54.108
54.284
54.421
54.526
54.608
54.676
54.739
54.806
54.883
54.978
55.096
55.237
55.402
55.591
55.808
56.058
56.344
56.672
57.044
57.465
57.937
58.464
59.044
59.679
60.365
61.101
61.886
62.717
63.591
64.507
65.462
66.453
67.475
68.524
69.597
70.688
71.791
72.9
74.008
75.11
76.198
77.267
78.31
79.32
80.292
81.218
82.091
82.906
83.656
84.334
84.933
85.446
85.869
86.196
86.42
86.538
86.546
86.44
86.217
85.874
85.41
84.823
84.114
83.281
82.328
81.255
80.066
78.765
77.356
75.846
74.24
72.546
70.771
68.924
67.015
65.052
63.046
61.009
58.951
56.885
54.823
52.778
50.763
48.79
46.874
45.026
43.261
41.59
40.026
38.582
37.267
36.093
35.07
34.205
33.508
32.983
32.635
32.469
32.486
32.687
33.071
33.635
34.375
35.285
36.359
37.588
38.962
40.47
42.098
43.833
45.658
47.557
49.513
51.505
53.516
55.523
57.508
59.448
61.324
63.114
64.798
66.355
67.766
69.012
70.076
70.94
71.589
72.011
72.193
72.126
71.802
71.215
70.361
69.238
67.848
66.193
64.277
62.105
59.686
57.03
54.151
51.063
47.781
44.323
40.711
36.967
33.115
29.18
25.187
21.159
17.123
13.103
9.125
5.213
1.389
-2.328
-5.914
-9.347
-12.603
-15.66
-18.513
-21.159
-23.588
-25.797
-27.783
-29.545
-31.093
-32.44
-33.578
-34.507
-35.224
-35.725
-36.035
-36.176
-36.169
-36.044
-35.809
-35.467
-35.048
-34.578
-34.067
-33.536
-32.986
-32.413
-31.875
-31.427
-31.112
-30.984
-31.059
-31.351
-31.889
-32.693
-33.793
-35.22
-36.981
-39.076
-41.54
-44.394
-47.673
-51.417
-55.583
-60.124
-65.01
-70.192
-75.648
-81.359
-87.271
-93.337
-99.517
-105.764
-112.049
-118.346
-124.593
-130.738
-136.719
-142.469
-147.985
-153.264
-158.291
-163.061
-167.555
-171.749
-175.646
-179.245
-182.522
-185.458
-188.021
-190.168
-191.877
-193.115
-193.856
-194.08
-193.738
-192.772
-191.128
-188.762
-185.658
-181.831
-177.296
-172.073
-166.21
-159.782
-152.929
-145.77
-138.343
-130.612
-122.44
-113.699
-104.369
-94.415
-83.718
-72.311
-60.489
-48.804
-38.167
-29.48
-23.301
-20.13
-20.494
-24.5
-31.637
-40.727
-49.824
-56.862
-60.182
-57.993
-48.461
-30.365
-3.227
31.742
72.249
116.496
162.093
207.214
249.704
284.478
307.669
315.644
305.043
277.586
236.018
184.332
127.907
69.105
8.335
-55.084
-119.887
-182.354
-235.987
-271.656
-285.213
-275.596
-244.491
-200.567
-151.196
-103.679
-67.073
-43.538
-32.841
-32.695
-35.97
-39.029
-40.714
-40.87
-42.195
-45.539
-49.952
-54.322
-56.899
-57.003
-55.114
-51.856
-48.079
-44.543
-41.578
-39.416
-38.195
-37.825
-38.152
-38.979
-40.015
-40.946
-41.603
-41.897
-41.791
-41.337
-40.572
-39.511
-38.213
-36.737
-35.117
-33.385
-31.56
-29.648
-27.678
-25.676
-23.652
-21.613
-19.554
-17.459
-15.315
-13.106
-10.809
-8.411
-5.901
-3.269
-0.511
2.377
5.405
8.583
11.921
15.429
19.112
22.974
27.015
31.232
35.618
40.164
44.856
49.682
54.631
59.69
64.847
70.088
75.397
80.755
86.146
91.548
96.94
102.298
107.598
112.814
117.923
122.902
127.726
132.372
136.818
141.041
145.02
148.736
152.169
155.3
158.112
160.591
162.722
164.494
165.897
166.922
167.564
167.818
167.683
167.159
166.247
164.952
163.279
161.236
158.834
156.083
152.997
149.59
145.881
141.887
137.627
133.123
128.396
123.469
118.365
113.106
107.717
102.222
96.643
91.005
85.33
79.642
73.961
68.309
62.707
57.172
51.723
46.377
41.148
36.05
31.096
26.296
21.661
17.197
12.912
8.81
4.896
1.172
-2.361
-5.704
-8.857
-11.822
-14.605
-17.208
-19.638
-21.9
-24.002
-25.951
-27.755
-29.423
-30.963
-32.385
-33.698
-34.912
-36.037
-37.082
-38.057
-38.971
-39.834
-40.655
-41.442
-42.204
-42.95
-43.686
-44.422
-45.164
-45.919
-46.694
-47.497
-48.332
-49.207
-50.127
-51.097
-52.124
-53.212
-54.365
-55.589
-56.888
-58.265
-59.724
-61.269
-62.903
-64.628
-66.448
-68.364
-70.378
-72.491
-74.704
-77.017
-79.43
-81.943
-84.554
-87.261
-90.063
-92.956
-95.937
-99.002
-102.145
-105.36
-108.64
-111.977
-115.362
-118.786
-122.238
-125.709
-129.187
-132.661
-136.117
-139.545
-142.929
-146.256
-149.513
-152.683
-155.753
-158.707
-161.529
-164.205
-166.72
-169.06
-171.211
-173.158
-174.89
-176.393
-177.656
-178.666
-179.412
-179.884
-180.074
-179.973
-179.577
-178.881
-177.884
-176.583
-174.98
-173.076
-170.873
-168.375
-165.585
-162.508
-159.151
-155.522
-151.631
-147.489
-143.108
-138.503
-133.689
-128.685
-123.508
-118.175
-112.702
-107.107
-101.407
-95.62
-89.763
-83.851
-77.899
-71.922
-65.937
-59.961
-54.011
-48.098
-42.234
-36.433
-30.707
-25.067
-19.526
-14.091
-8.769
-3.573
1.483
6.377
11.083
15.58
19.851
23.88
27.657
31.188
34.482
37.57
40.492
43.274
45.939
48.499
50.952
53.305
55.564
57.736
59.853
61.957
64.094
66.31
68.618
70.987
73.34
75.56
77.506
79.045
80.022
80.354
80.096
79.394
78.515
77.722
77.126
76.838
77.04
77.695
78.505
78.96
78.256
75.703
71.066
64.121
54.579
42.587
28.771
14.299
1.05
-9.086
-14.696
-14.343
-6.509
9.755
34.676
67.556
106.569
149.317
193.367
235.862
273.362
302.579
320.742
325.636
316.547
294.246
259.607
214.416
159.861
95.441
22.847
-54.029
-127.742
-187.095
-224.762
-239.013
-233.948
-218.609
-199.183
-178.273
-156.143
-131.201
-104.428
-77.94
-53.233
-32.151
-15.208
-2.048
7.364
14.06
19.731
25.196
30.776
36.543
42.074
47.189
52.107
56.487
59.57
60.97
60.521
58.327
54.831
50.332
44.957
38.988
32.84
26.833
21.233
16.222
11.883
8.319
5.654
3.944
3.171
3.294
4.249
5.927
8.206
10.92
13.862
16.885
19.892
22.799
25.547
28.073
30.295
32.162
33.661
34.763
35.448
35.699
35.489
34.83
33.768
32.354
30.648
28.694
26.509
24.112
21.514
18.725
15.749
12.581
9.207
5.621
1.83
-2.159
-6.329
-10.674
-15.191
-19.878
-24.726
-29.728
-34.871
-40.142
-45.526
-51.005
-56.556
-62.153
-67.767
-73.374
-78.949
-84.469
-89.912
-95.256
-100.48
-105.564
-110.491
-115.242
-119.798
-124.141
-128.256
-132.127
-135.74
-139.083
-142.147
-144.922
-147.403
-149.587
-151.47
-153.055
-154.343
-155.338
-156.047
-156.477
-156.639
-156.543
-156.203
-155.632
-154.847
-153.866
-152.706
-151.387
-149.929
-148.352
-146.677
-144.924
-143.114
-141.267
-139.403
-137.541
-135.7
-133.898
-132.153
-130.479
-128.892
-127.405
-126.03
-124.777
-123.655
-122.668
-121.822
-121.119
-120.56
-120.142
-119.864
-119.719
-119.7
-119.8
-120.007
-120.311
-120.699
-121.156
-121.666
-122.215
-122.785
-123.359
-123.919
-124.447
-124.926
-125.338
-125.666
-125.893
-126.004
-125.984
-125.819
-125.496
-125.004
-124.332
-123.472
-122.417
-121.161
-119.701
-118.034
-116.16
-114.08
-111.796
-109.314
-106.638
-103.775
-100.734
-97.523
-94.153
-90.634
-86.978
-83.197
-79.304
-75.311
-71.23
-67.075
-62.857
-58.587
-54.277
-49.935
-45.572
-41.195
-36.811
-32.425
-28.044
-23.669
-19.302
-14.945
-10.595
-6.249
-1.905
2.443
6.801
11.176
15.578
20.013
24.492
29.023
33.618
38.286
43.038
47.883
52.832
57.894
63.077
68.39
73.839
79.428
85.161
91.038
97.061
103.226
109.53
115.968
122.532
129.214
136
142.88
149.837
156.853
163.907
170.978
178.042
185.074
192.048
198.936
205.71
212.342
218.804
225.068
231.104
236.882
242.373
247.548
252.379
256.838
260.898
264.531
267.714
270.427
272.653
274.377
275.588
276.277
276.44
276.075
275.182
273.76
271.813
269.346
266.368
262.894
258.94
254.529
249.683
244.431
238.801
232.829
226.542
219.966
213.119
206.019
198.692
191.17
183.492
175.696
167.831
159.956
152.134
144.433
136.908
129.598
122.527
115.714
109.183
102.965
97.102
91.634
86.588
81.992
77.855
74.185
70.96
68.105
65.517
63.07
60.654
58.186
55.636
52.97
50.135
47.154
44.079
41.02
38.19
35.753
33.817
32.473
31.828
31.874
32.52
33.55
34.49
34.872
34.333
32.681
29.973
26.607
23.244
20.715
20.236
23.214
30.941
44.376
64.037
89.652
120.371
155.239
192.016
227.777
260.338
286.839
305.742
316.471
315.565
301.154
272.507
228.826
174.42
111.697
40.311
-36.373
-115.53
-189.628
-246.319
-280.36
-290.88
-282.038
-262.945
-237.487
-207.421
-175.206
-143.173
-116.549
-99.535
-92.076
-90.818
-91.112
-89.965
-87.188
-84.899
-84.704
-86.424
-88.915
-90.326
-89.643
-87.015
-82.929
-78.05
-72.956
-68.117
-63.902
-60.621
-58.438
-57.302
-57.05
-57.434
-58.152
-58.903
-59.499
-59.843
-59.886
-59.651
-59.157
-58.435
-57.554
-56.585
-55.573
-54.536
-53.483
-52.42
-51.38
-50.417
-49.568
-48.857
-48.293
-47.877
-47.609
-47.493
-47.523
-47.682
-47.957
-48.336
-48.818
-49.405
-50.096
-50.883
-51.758
-52.71
-53.733
-54.824
-55.982
-57.208
-58.502
-59.871
-61.322
-62.863
-64.502
-66.244
-68.094
-70.053
-72.127
-74.321
-76.636
-79.077
-81.648
-84.351
-87.191
-90.17
-93.291
-96.554
-99.957
-103.501
-107.182
-110.998
-114.945
-119.017
-123.208
-127.513
-131.924
-136.433
-141.032
-145.71
-150.456
-155.26
-160.11
-164.994
-169.898
-174.81
-179.715
-184.601
-189.455
-194.263
-199.012
-203.689
-208.281
-212.777
-217.165
-221.435
-225.575
-229.577
-233.43
-237.129
-240.666
-244.034
-247.229
-250.248
-253.086
-255.742
-258.215
-260.504
-262.61
-264.533
-266.275
-267.838
-269.225
-270.439
-271.484
-272.364
-273.084
-273.648
-274.062
-274.329
-274.455
-274.445
-274.302
-274.031
-273.636
-273.12
-272.486
-271.735
-270.869
-269.889
-268.794
-267.584
-266.257
-264.811
-263.241
-261.544
-259.714
-257.747
-255.636
-253.376
-250.958
-248.377
-245.626
-242.696
-239.582
-236.276
-232.77
-229.06
-225.137
-220.996
-216.632
-212.039
-207.213
-202.15
-196.848
-191.303
-185.516
-179.484
-173.21
-166.695
-159.941
-152.952
-145.734
-138.293
-130.638
-122.776
-114.72
-106.48
-98.07
-89.502
-80.793
-71.957
-63.01
-53.97
-44.853
-35.678
-26.46
-17.22
-7.974
1.259
10.462
19.615
28.702
37.704
46.604
55.386
64.033
72.527
80.854
88.997
96.943
104.675
112.182
119.449
126.466
133.221
139.703
145.906
151.822
157.443
162.766
167.786
172.499
176.903
180.996
184.776
188.24
191.389
194.221
196.735
198.932
200.812
202.376
203.626
204.562
205.189
205.507
205.52
205.23
204.642
203.76
202.589
201.134
199.402
197.401
195.14
192.627
189.873
186.885
183.672
180.242
176.605
172.771
168.751
164.557
160.202
155.704
151.081
146.356
141.547
136.674
131.754
126.805
121.843
116.886
111.949
107.044
102.181
97.369
92.617
87.93
83.312
78.763
74.286
69.881
65.555
61.322
57.198
53.199
49.352
45.681
42.211
38.989
36.058
33.469
31.293
29.583
28.38
27.713
27.585
27.973
28.861
30.174
31.785
33.619
35.659
37.977
40.761
44.136
48.11
52.707
57.995
63.884
70.042
75.825
80.262
82.483
82.011
78.551
71.821
61.904
49.455
35.703
22.599
12.222
6.05
5.335
11.398
25.028
46.326
74.714
108.501
145.537
184.085
222.125
257.094
286.707
308.791
321.504
324.013
315.639
295.999
266.312
228.709
185.426
137.789
84.902
26.284
-35.815
-95.449
-143.231
-171.917
-178.578
-164.829
-137.091
-101.261
-62.741
-26.895
4.035
28.158
45.663
59.838
72.373
84.804
97.397
107.853
115.095
118.625
118.57
116.694
114.515
112.969
112.565
113.18
114.631
116.876
119.866
123.372
126.854
129.833
132.1
133.595
134.433
134.76
134.623
134.151
133.595
133.128
132.832
132.741
132.782
132.891
133.061
133.255
133.424
133.54
133.567
133.503
133.382
133.229
133.07
132.933
132.835
132.802
132.875
133.081
133.445
133.989
134.726
135.673
136.849
138.268
139.943
141.887
144.102
146.592
149.36
152.403
155.721
159.306
163.146
167.23
171.549
176.091
180.845
185.797
190.932
196.234
201.688
207.275
212.975
218.768
224.631
230.542
236.479
242.422
248.349
254.241
260.077
265.84
271.511
277.075
282.514
287.814
292.961
297.942
302.745
307.362
311.781
315.996
319.999
323.786
327.35
330.689
333.798
336.674
339.316
341.722
343.892
345.824
347.519
348.977
350.201
351.192
351.952
352.483
352.788
352.869
352.729
352.371
351.797
351.009
350.01
348.802
347.386
345.766
343.943
341.918
339.693
337.27
334.65
331.834
328.824
325.621
322.229
318.648
314.883
310.936
306.813
302.516
298.053
293.428
288.65
283.725
278.663
273.471
268.162
262.744
257.231
251.634
245.966
240.241
234.474
228.679
222.87
217.065
211.278
205.527
199.827
194.195
188.647
183.201
177.872
172.678
167.634
162.756
158.059
153.558
149.265
145.194
141.356
137.761
134.419
131.337
128.523
125.981
123.715
121.727
120.017
118.587
117.432
116.55
115.935
115.581
115.479
115.621
115.996
116.594
117.401
118.403
119.587
120.938
122.438
124.073
125.824
127.673
129.601
131.591
133.622
135.675
137.732
139.774
141.782
143.74
145.631
147.437
149.144
150.737
152.201
153.523
154.691
155.694
156.52
157.161
157.608
157.855
157.896
157.727
157.344
156.743
155.924
154.887
153.63
152.154
150.46
148.548
146.424
144.09
141.551
138.812
135.879
132.757
129.452
125.971
122.316
118.489
114.492
110.329
106
101.509
96.857
92.047
87.083
81.972
76.72
71.331
65.804
60.14
54.339
48.401
42.325
36.108
29.746
23.236
16.577
9.775
2.829
-4.266
-11.52
-18.952
-26.57
-34.376
-42.372
-50.558
-58.931
-67.479
-76.178
-84.985
-93.861
-102.781
-111.715
-120.643
-129.531
-138.331
-147.01
-155.541
-163.909
-172.115
-180.172
-188.081
-195.876
-203.614
-211.353
-219.185
-227.198
-235.455
-244.05
-253.088
-262.653
-272.861
-283.83
-295.553
-307.951
-320.858
-333.966
-346.999
-359.739
-371.844
-382.928
-392.857
-401.686
-409.719
-417.54
-425.502
-433.631
-442.063
-451.009
-460.233
-469.115
-476.567
-480.973
-481.056
-476.112
-465.37
-447.793
-422.801
-390.523
-351.789
-308.784
-264.357
-220.111
-177.598
-138.415
-102.623
-72.716
-53.291
-48.118
-61.698
-94.361
-140.33
-192.863
-245.698
-295.635
-343.924
-392.226
-438.371
-477.259
-503.274
-511.356
-502.243
-481.327
-453.768
-425.699
-400.365
-377.392
-357.297
-340.063
-326.014
-317.096
-313.927
-315.693
-321.233
-328.641
-336.138
-343.009
-348.782
-352.824
-354.892
-355.062
-353.587
-351.217
-348.79
-346.633
-344.875
-343.633
-342.849
-342.506
-342.593
-342.868
-343.024
-342.901
-342.41
-341.536
-340.347
-338.853
-337.033
-334.911
-332.532
-329.951
-327.235
-324.435
-321.562
-318.622
-315.621
-312.564
-309.463
-306.324
-303.14
-299.894
-296.578
-293.195
-289.759
-286.287
-282.789
-279.266
-275.718
-272.144
-268.549
-264.937
-261.308
-257.664
-254.002
-250.326
-246.647
-242.974
-239.316
-235.68
-232.068
-228.485
-224.935
-221.424
-217.953
-214.525
-211.144
-207.814
-204.542
-201.333
-198.196
-195.135
-192.156
-189.266
-186.47
-183.772
-181.177
-178.69
-176.313
-174.051
-171.908
-169.888
-167.995
-166.231
-164.602
-163.11
-161.759
-160.552
-159.49
-158.576
-157.811
-157.197
-156.734
-156.422
-156.263
-156.255
-156.398
-156.692
-157.133
-157.72
-158.449
-159.315
-160.314
-161.441
-162.69
-164.054
-165.526
-167.1
-168.767
-170.52
-172.351
-174.251
-176.211
-178.221
-180.271
-182.352
-184.453
-186.565
-188.675
-190.774
-192.852
-194.897
-196.9
-198.849
-200.735
-202.547
-204.277
-205.913
-207.449
-208.874
-210.181
-211.363
-212.413
-213.324
-214.092
-214.711
-215.179
-215.492
-215.647
-215.644
-215.482
-215.162
-214.684
-214.051
-213.266
-212.332
-211.255
-210.04
-208.693
-207.221
-205.632
-203.933
-202.134
-200.243
-198.269
-196.223
-194.114
-191.951
-189.744
-187.503
-185.237
-182.955
-180.666
-178.378
-176.099
-173.835
-171.592
-169.374
-167.187
-165.032
-162.911
-160.824
-158.771
-156.748
-154.753
-152.78
-150.823
-148.874
-146.924
-144.962
-142.977
-140.954
-138.881
-136.742
-134.521
-132.202
-129.769
-127.203
-124.489
-121.609
-118.547
-115.285
-111.808
-108.1
-104.146
-99.931
-95.445
-90.674
-85.61
-80.245
-74.572
-68.588
-62.291
-55.682
-48.764
-41.541
-34.021
-26.213
-18.13
-9.788
-1.204
7.6
16.6
25.771
35.083
44.505
54.006
63.551
73.105
82.632
92.097
101.461
110.686
119.733
128.563
137.137
145.416
153.362
160.938
168.107
174.834
181.088
186.84
192.065
196.74
200.844
204.358
207.269
209.569
211.251
212.312
212.75
212.571
211.786
210.41
208.462
205.963
202.937
199.406
195.399
190.948
186.082
180.829
175.212
169.247
162.959
156.384
149.564
142.55
135.393
128.135
120.832
113.551
106.35
99.288
92.41
85.742
79.322
73.2
67.442
62.146
57.391
53.216
49.632
46.614
44.12
42.12
40.558
39.306
38.219
37.201
36.255
35.519
35.215
35.515
36.474
38.109
40.545
43.831
47.793
52.019
55.745
58.145
58.778
57.409
53.682
47.529
39.363
30.007
21.073
14.557
11.917
14.436
23.696
40.817
66.121
99.377
138.674
180.751
223.712
265.832
305.364
342.291
373.59
393.87
398.747
382.807
345.721
293.572
232.367
168.81
105.264
38.082
-33.228
-106.068
-173.145
-222.105
-246.32
-245.258
-223.801
-192.531
-158.908
-126.758
-97.459
-69.351
-42.351
-17.939
2.248
16.372
24.205
27.061
26.526
24.487
22.56
21.682
22.704
26.134
31.943
39.804
49.098
58.964
68.587
77.467
85.242
91.744
97.033
101.249
104.665
107.663
110.599
113.679
116.99
120.544
124.294
128.207
132.236
136.298
140.302
144.188
147.925
151.494
154.879
158.041
160.918
163.469
165.67
167.512
169
170.143
170.945
171.423
171.604
171.512
171.169
170.593
169.794
168.792
167.613
166.285
164.839
163.302
161.699
160.054
158.387
156.717
155.06
153.429
151.833
150.286
148.8
147.39
146.066
144.842
143.724
142.723
141.846
141.097
140.479
139.994
139.64
139.418
139.327
139.364
139.527
139.811
140.213
140.726
141.347
142.067
142.881
143.779
144.756
145.802
146.911
148.074
149.284
150.533
151.815
153.122
154.449
155.789
157.136
158.485
159.832
161.171
162.498
163.809
165.101
166.371
167.614
168.83
170.016
171.17
172.29
173.374
174.421
175.428
176.393
177.316
178.193
179.022
179.801
180.528
181.2
181.815
182.368
182.857
183.278
183.627
183.901
184.094
184.201
184.219
184.142
183.965
183.684
183.293
182.788
182.166
181.421
180.551
179.553
178.424
177.162
175.767
174.237
172.573
170.776
168.849
166.792
164.612
162.311
159.895
157.37
154.743
152.022
149.216
146.333
143.385
140.382
137.336
134.259
131.165
128.068
124.982
121.922
118.902
115.938
113.045
110.238
107.533
104.943
102.485
100.171
98.016
96.032
94.232
92.626
91.225
90.037
89.072
88.336
87.835
87.574
87.556
87.785
88.26
88.983
89.951
91.162
92.612
94.294
96.203
98.328
100.66
103.188
105.898
108.776
111.808
114.975
118.261
121.647
125.112
128.637
132.199
135.778
139.349
142.891
146.381
149.795
153.113
156.31
159.366
162.258
164.965
167.466
169.742
171.77
173.532
175.008
176.179
177.028
177.539
177.698
177.49
176.905
175.932
174.564
172.793
170.615
168.026
165.024
161.611
157.787
153.558
148.93
143.913
138.517
132.756
126.645
120.2
113.437
106.372
99.025
91.416
83.567
75.502
67.247
58.832
50.289
41.653
32.957
24.236
15.523
6.848
-1.755
-10.258
-18.632
-26.85
-34.886
-42.715
-50.313
-57.66
-64.742
-71.544
-78.052
-84.25
-90.12
-95.642
-100.797
-105.564
-109.919
-113.832
-117.273
-120.211
-122.613
-124.455
-125.696
-126.284
-126.184
-125.377
-123.866
-121.7
-118.931
-115.608
-111.824
-107.693
-103.272
-98.571
-93.523
-87.978
-81.861
-75.171
-67.865
-59.954
-51.639
-43.309
-35.572
-29.121
-24.387
-21.562
-20.856
-22.313
-25.542
-29.725
-33.558
-35.613
-34.913
-30.737
-22.183
-8.474
10.623
34.763
62.792
93.315
125.392
157.929
189.055
216.604
238.623
253.352
259.78
257.212
244.352
221.064
189.347
150.813
106.947
58.78
5.282
-50.76
-102.538
-143.705
-167.727
-173.744
-167
-152.22
-134.256
-115.57
-95.616
-75.279
-55.545
-37.539
-23.28
-13.761
-9.493
-10.359
-15.014
-21.841
-29.441
-36.877
-43.807
-49.939
-54.759
-58.065
-60.06
-61.312
-62.635
-64.447
-66.758
-69.552
-72.849
-76.658
-80.972
-85.586
-90.108
-94.314
-98.139
-101.57
-104.661
-107.419
-109.802
-111.827
-113.563
-115.075
-116.418
-117.631
-118.721
-119.696
-120.568
-121.344
-122.033
-122.632
-123.132
-123.515
-123.762
-123.868
-123.834
-123.664
-123.363
-122.929
-122.359
-121.653
-120.812
-119.837
-118.733
-117.503
-116.149
-114.679
-113.104
-111.438
-109.696
-107.891
-106.032
-104.129
-102.192
-100.227
-98.245
-96.252
-94.256
-92.263
-90.282
-88.321
-86.387
-84.488
-82.63
-80.815
-79.047
-77.329
-75.659
-74.039
-72.465
-70.936
-69.448
-67.997
-66.577
-65.185
-63.813
-62.457
-61.108
-59.76
-58.405
-57.037
-55.648
-54.233
-52.785
-51.3
-49.772
-48.201
-46.582
-44.915
-43.2
-41.438
-39.632
-37.784
-35.9
-33.985
-32.046
-30.094
-28.137
-26.187
-24.257
-22.361
-20.515
-18.734
-17.035
-15.436
-13.955
-12.611
-11.423
-10.409
-9.588
-8.979
-8.599
-8.465
-8.592
-8.997
-9.691
-10.688
-11.995
-13.622
-15.575
-17.856
-20.467
-23.407
-26.672
-30.255
-34.148
-38.339
-42.815
-47.56
-52.554
-57.777
-63.205
-68.813
-74.574
-80.459
-86.438
-92.479
-98.548
-104.613
-110.638
-116.59
-122.432
-128.131
-133.651
-138.96
-144.023
-148.809
-153.286
-157.426
-161.202
-164.587
-167.56
-170.1
-172.188
-173.811
-174.955
-175.61
-175.77
-175.431
-174.591
-173.253
-171.419
-169.099
-166.301
-163.038
-159.325
-155.179
-150.619
-145.666
-140.341
-134.669
-128.673
-122.378
-115.813
-109.003
-101.977
-94.762
-87.387
-79.881
-72.27
-64.582
-56.843
-49.078
-41.31
-33.562
-25.855
-18.207
-10.639
-3.165
4.197
11.432
18.53
25.477
32.264
38.885
45.332
51.601
57.689
63.592
69.309
74.837
80.174
85.317
90.265
95.015
99.567
103.919
108.07
112.02
115.767
119.311
122.65
125.779
128.696
131.394
133.866
136.102
138.095
139.834
141.307
142.508
143.426
144.053
144.381
144.402
144.107
143.486
142.531
141.23
139.571
137.543
135.136
132.343
129.16
125.588
121.624
117.272
112.535
107.419
101.926
96.057
89.803
83.159
76.123
68.698
60.9
52.745
44.266
35.504
26.504
17.318
7.992
-1.437
-10.95
-20.532
-30.168
-39.837
-49.493
-59.084
-68.558
-77.864
-86.952
-95.773
-104.312
-112.604
-120.711
-128.735
-136.765
-144.841
-152.993
-161.25
-169.542
-177.741
-185.704
-193.181
-199.984
-206.024
-211.146
-215.262
-218.486
-221.003
-223.155
-225.489
-228.37
-232.055
-236.934
-243.102
-250.229
-257.72
-264.5
-269.177
-270.53
-267.292
-258.057
-241.924
-218.761
-189.072
-154.043
-115.363
-75.088
-35.765
-0.377
28.236
47.964
57.333
55.176
41.442
17.563
-14.438
-52.274
-94.916
-142.519
-193.537
-243.291
-283.895
-307.76
-311.361
-296.308
-269.12
-236.643
-203.201
-170.833
-139.122
-107.83
-78.183
-52.16
-32.064
-18.924
-12.344
-11.152
-13.628
-18.446
-24.566
-30.645
-35.568
-38.713
-39.755
-38.871
-36.596
-33.306
-29.419
-25.575
-22.22
-19.631
-18.01
-17.315
-17.395
-18.154
-19.401
-20.88
-22.458
-24.056
-25.628
-27.215
-28.84
-30.518
-32.311
-34.287
-36.488
-38.927
-41.577
-44.392
-47.336
-50.378
-53.492
-56.645
-59.795
-62.909
-65.965
-68.948
-71.846
-74.639
-77.301
-79.808
-82.138
-84.269
-86.184
-87.867
-89.297
-90.46
-91.345
-91.942
-92.247
-92.253
-91.955
-91.348
-90.429
-89.193
-87.641
-85.773
-83.591
-81.099
-78.303
-75.214
-71.842
-68.202
-64.307
-60.172
-55.815
-51.252
-46.5
-41.577
-36.502
-31.293
-25.97
-20.553
-15.062
-9.519
-3.944
1.64
7.213
12.754
18.241
23.657
28.98
34.193
39.276
44.213
48.987
53.582
57.982
62.173
66.142
69.877
73.367
76.602
79.575
82.278
84.706
86.854
88.717
90.294
91.581
92.579
93.287
93.707
93.84
93.69
93.261
92.56
91.591
90.363
88.884
87.164
85.214
83.045
80.669
78.099
75.351
72.438
69.377
66.184
62.876
59.472
55.991
52.45
48.871
45.273
41.676
38.101
34.57
31.103
27.721
24.445
21.297
18.297
15.466
12.824
10.389
8.181
6.218
4.514
3.087
1.95
1.116
0.595
0.397
0.529
0.998
1.808
2.96
4.454
6.289
8.459
10.959
13.779
16.909
20.336
24.044
28.016
32.235
36.68
41.327
46.155
51.137
56.246
61.455
66.735
72.056
77.387
82.7
87.962
93.144
98.217
103.151
107.918
112.49
116.843
120.95
124.788
128.336
131.573
134.482
137.049
139.259
141.104
142.575
143.668
144.381
144.714
144.67
144.255
143.476
142.343
140.869
139.068
136.957
134.557
131.89
128.977
125.846
122.521
119.03
115.399
111.654
107.825
103.936
100.017
96.092
92.19
88.335
84.555
80.874
77.314
73.897
70.641
67.563
64.676
61.992
59.519
57.263
55.228
53.416
51.83
50.469
49.331
48.413
47.707
47.206
46.903
46.785
46.839
47.047
47.392
47.857
48.423
49.075
49.793
50.559
51.352
52.153
52.944
53.703
54.404
55.017
55.505
55.833
55.978
55.919
55.643
55.152
54.45
53.553
52.487
51.267
49.906
48.408
46.764
44.965
43.011
40.916
38.718
36.461
34.197
31.957
29.747
27.533
25.249
22.798
20.078
16.98
13.371
9.214
4.579
-0.381
-5.385
-10.212
-14.799
-19.031
-22.757
-26.072
-29.204
-32.575
-36.958
-42.878
-50.501
-60.104
-71.828
-85.299
-99.941
-114.658
-127.643
-137.426
-142.753
-142.118
-134.463
-119.399
-96.977
-68.204
-34.979
0.815
36.827
70.141
98.041
118.009
128.073
126.977
114.564
91.76
60.035
21.661
-22.734
-74.319
-131.979
-192.751
-249.383
-290.796
-311.485
-311.256
-294.933
-272.556
-249.979
-229.041
-210.276
-191.669
-172.896
-155.191
-139.387
-126.692
-117.746
-112.36
-109.727
-108.44
-107.213
-105.421
-102.914
-99.739
-95.787
-90.716
-84.492
-77.565
-70.565
-63.915
-57.702
-51.806
-46.136
-40.781
-35.815
-31.126
-26.459
-21.578
-16.379
-10.883
-5.157
0.781
6.95
13.34
19.897
26.544
33.203
39.824
46.377
52.828
59.145
65.3
71.264
77.016
82.548
87.854
92.935
97.793
102.424
106.818
110.966
114.866
118.517
121.923
125.086
128.008
130.693
133.147
135.376
137.386
139.179
140.758
142.122
143.273
144.212
144.945
145.48
145.823
145.983
145.968
145.788
145.453
144.974
144.359
143.617
142.757
141.789
140.722
139.568
138.337
137.041
135.69
134.297
132.871
131.425
129.968
128.51
127.061
125.628
124.22
122.845
121.51
120.223
118.99
117.818
116.712
115.678
114.72
113.844
113.053
112.349
111.736
111.216
110.791
110.462
110.229
110.094
110.055
110.112
110.264
110.508
110.842
111.263
111.766
112.348
113.004
113.729
114.518
115.367
116.269
117.22
118.214
119.245
120.308
121.398
122.509
123.636
124.772
125.913
127.052
128.185
129.306
130.41
131.492
132.546
133.568
134.554
135.498
136.397
137.247
138.044
138.785
139.466
140.087
140.643
141.133
141.556
141.908
142.19
142.398
142.533
142.591
142.572
142.475
142.297
142.036
141.693
141.264
140.748
140.143
139.449
138.662
137.782
136.807
135.735
134.565
133.295
131.925
130.453
128.879
127.203
125.425
123.546
121.566
119.487
117.309
115.035
112.668
110.211
107.667
105.041
102.338
99.567
96.732
93.843
90.908
87.935
84.937
81.921
78.901
75.887
72.893
69.93
67.013
64.156
61.373
58.68
56.091
53.621
51.284
49.095
47.066
45.21
43.538
42.061
40.791
39.737
38.907
38.309
37.949
37.831
37.96
38.336
38.956
39.818
40.916
42.244
43.792
45.552
47.51
49.654
51.969
54.438
57.044
59.767
62.585
65.474
68.409
71.363
74.31
77.22
80.063
82.813
85.441
87.923
90.234
92.349
94.246
95.903
97.299
98.413
99.22
99.698
99.827
99.591
98.977
97.981
96.595
94.816
92.648
90.096
87.167
83.864
80.18
76.103
71.632
66.776
61.56
56.011
50.163
44.06
37.75
31.286
24.718
18.084
11.396
4.654
-2.138
-8.965
-15.781
-22.525
-29.153
-35.632
-41.95
-48.105
-54.111
-60.008
-65.858
-71.747
-77.759
-83.947
-90.331
-96.905
-103.607
-110.39
-117.285
-124.281
-131.319
-138.288
-144.903
-150.883
-156.117
-160.47
-163.796
-166.125
-167.443
-167.922
-168.252
-169.109
-170.857
-173.689
-177.323
-181.038
-184.425
-186.833
-186.849
-183.064
-174.261
-159.647
-139.609
-115.259
-87.313
-56.846
-25.928
2.948
26.8
42.903
49.816
46.67
32.377
6.167
-31.218
-77.321
-129.445
-185.13
-243.32
-304.467
-365.398
-420.047
-462.855
-487.929
-494.815
-488.484
-472.872
-452.655
-430.624
-406.205
-380.274
-354.012
-328.637
-306.52
-289.223
-277.129
-270.063
-267.051
-266.737
-267.927
-269.43
-270.245
-269.606
-267.02
-262.373
-255.898
-248.087
-239.548
-230.971
-222.848
-215.482
-209.057
-203.545
-198.792
-194.601
-190.706
-186.808
-182.747
-178.46
-173.919
-169.19
-164.336
-159.411
-154.502
-149.695
-145.042
-140.584
-136.353
-132.369
-128.676
-125.312
-122.294
-119.642
-117.355
-115.431
-113.866
-112.648
-111.755
-111.17
-110.876
-110.86
-111.111
-111.616
-112.354
-113.304
-114.441
-115.744
-117.191
-118.76
-120.429
-122.179
-123.991
-125.851
-127.744
-129.654
-131.563
-133.453
-135.305
-137.105
-138.836
-140.484
-142.035
-143.477
-144.799
-145.993
-147.053
-147.969
-148.737
-149.349
-149.801
-150.089
-150.209
-150.16
-149.938
-149.545
-148.98
-148.245
-147.342
-146.275
-145.046
-143.66
-142.122
-140.439
-138.616
-136.66
-134.579
-132.381
-130.074
-127.668
-125.17
-122.591
-119.938
-117.222
-114.453
-111.639
-108.79
-105.916
-103.025
-100.128
-97.234
-94.353
-91.496
-88.671
-85.89
-83.162
-80.499
-77.91
-75.407
-73
-70.698
-68.513
-66.454
-64.532
-62.755
-61.134
-59.677
-58.394
-57.292
-56.38
-55.665
-55.155
-54.855
-54.773
-54.913
-55.281
-55.88
-56.713
-57.784
-59.094
-60.645
-62.435
-64.465
-66.731
-69.231
-71.961
-74.914
-78.083
-81.462
-85.041
-88.809
-92.755
-96.866
-101.13
-105.53
-110.052
-114.678
-119.39
-124.171
-128.999
-133.856
-138.72
-143.569
-148.381
-153.135
-157.807
-162.374
-166.814
-171.102
-175.216
-179.132
-182.829
-186.282
-189.472
-192.376
-194.974
-197.247
-199.177
-200.746
-201.937
-202.737
-203.13
-203.105
-202.651
-201.758
-200.417
-198.622
-196.37
-193.655
-190.478
-186.838
-182.738
-178.18
-173.171
-167.717
-161.826
-155.508
-148.774
-141.636
-134.108
-126.207
-117.947
-109.348
-100.428
-91.206
-81.702
-71.936
-61.931
-51.706
-41.283
-30.685
-19.932
-9.048
1.946
13.027
24.172
35.359
46.565
57.77
68.951
80.088
91.161
102.151
113.04
123.81
134.443
144.923
155.233
165.356
175.278
184.985
194.464
203.702
212.688
221.411
229.86
238.027
245.901
253.474
260.734
267.67
274.272
280.53
286.435
291.975
297.145
301.938
306.349
310.377
314.022
317.282
320.157
322.645
324.743
326.45
327.764
328.686
329.214
329.354
329.107
328.482
327.489
326.138
324.435
322.385
319.983
317.227
314.13
310.704
306.967
302.945
298.664
294.157
289.478
284.674
279.793
274.876
269.943
265.005
260.086
255.215
250.43
245.766
241.219
236.765
232.398
228.101
223.866
219.677
215.441
211.05
206.416
201.457
196.141
190.48
184.427
177.893
170.878
163.458
155.842
148.38
141.299
134.699
128.756
123.729
119.764
116.866
114.756
112.854
110.764
108.398
105.638
102.321
98.621
94.987
92.205
91.495
93.756
99.475
109.271
123.795
143.224
167.396
195.663
226.923
259.809
292.406
322.68
348.328
368.987
386.47
400.731
410.105
409.448
390.738
350.854
291.357
216.859
134.274
47.677
-39.948
-123.217
-194.44
-245.173
-270.077
-269.36
-249.213
-217.637
-181.924
-148.056
-118.409
-94.734
-77.292
-64.07
-54.404
-46.984
-41.425
-39.616
-41.937
-48.073
-57.037
-66.183
-73.642
-78.793
-81.37
-81.703
-80.359
-77.68
-74.17
-70.662
-67.767
-65.757
-64.759
-64.648
-65.149
-66.074
-67.177
-68.106
-68.673
-68.794
-68.424
-67.633
-66.5
-65.061
-63.386
-61.551
-59.585
-57.521
-55.383
-53.182
-50.952
-48.725
-46.514
-44.332
-42.182
-40.06
-37.967
-35.897
-33.833
-31.766
-29.689
-27.6
-25.503
-23.397
-21.277
-19.137
-16.97
-14.774
-12.549
-10.295
-8.013
-5.709
-3.389
-1.066
1.248
3.543
5.81
8.04
10.224
12.352
14.414
16.4
18.3
20.103
21.797
23.37
24.812
26.111
27.261
28.251
29.076
29.729
30.204
30.499
30.611
30.538
30.279
29.836
29.211
28.409
27.435
26.296
25.002
23.563
21.991
20.299
18.502
16.615
14.654
12.638
10.583
8.51
6.438
4.385
2.373
0.421
-1.451
-3.223
-4.875
-6.389
-7.746
-8.93
-9.925
-10.714
-11.284
-11.623
-11.718
-11.561
-11.144
-10.458
-9.501
-8.269
-6.761
-4.978
-2.924
-0.604
1.976
4.807
7.879
11.179
14.693
18.407
22.305
26.368
30.578
34.916
39.361
43.893
48.49
53.131
57.794
62.458
67.101
71.701
76.238
80.69
85.037
89.26
93.337
97.252
100.986
104.523
107.847
110.943
113.8
116.406
118.75
120.823
122.617
124.128
125.35
126.28
126.915
127.256
127.302
127.055
126.518
125.693
124.586
123.202
121.544
119.62
117.437
115
112.318
109.398
106.249
102.881
99.301
95.521
91.55
87.399
83.078
78.597
73.968
69.201
64.306
59.293
54.174
48.959
43.657
38.279
32.836
27.337
21.792
16.212
10.605
4.982
-0.647
-6.272
-11.881
-17.463
-23.007
-28.499
-33.928
-39.28
-44.541
-49.699
-54.74
-59.651
-64.419
-69.031
-73.474
-77.735
-81.802
-85.661
-89.3
-92.708
-95.87
-98.776
-101.415
-103.777
-105.852
-107.632
-109.109
-110.274
-111.12
-111.643
-111.837
-111.698
-111.221
-110.407
-109.254
-107.767
-105.95
-103.809
-101.352
-98.589
-95.53
-92.188
-88.575
-84.706
-80.595
-76.257
-71.71
-66.975
-62.071
-57.018
-51.84
-46.56
-41.205
-35.799
-30.364
-24.924
-19.499
-14.114
-8.789
-3.545
1.602
6.634
11.534
16.281
20.856
25.244
29.432
33.41
37.165
40.685
43.959
46.984
49.761
52.29
54.567
56.577
58.3
59.724
60.848
61.67
62.186
62.402
62.331
62.009
61.498
60.848
60.096
59.261
58.351
57.377
56.357
55.319
54.292
53.305
52.397
51.609
50.979
50.511
50.166
49.84
49.397
48.688
47.554
45.925
43.812
41.321
38.672
36.046
33.546
31.293
29.452
28.047
26.883
25.497
23.147
19.312
13.857
6.746
-2.12
-12.781
-24.9
-37.509
-49.003
-57.823
-62.946
-63.587
-58.788
-47.427
-28.776
-2.976
28.771
64.746
103.417
143.188
181.82
216.5
244.213
262.324
269.188
263.59
244.948
213.991
172.217
121.946
64.902
0.882
-69.303
-142.33
-211.82
-267.993
-303.369
-315.7
-306.682
-281.734
-246.622
-205.651
-163.746
-126.915
-100.129
-86.142
-84.013
-88.409
-94.008
-97.839
-99.447
-100.925
-103.749
-107.712
-111.596
-113.661
-113.177
-110.516
-106.43
-101.937
-97.814
-94.418
-92.055
-90.865
-90.79
-91.713
-93.39
-95.496
-97.713
-99.843
-101.789
-103.521
-105.069
-106.455
-107.7
-108.845
-109.95
-111.057
-112.179
-113.33
-114.51
-115.737
-117.054
-118.489
-120.056
-121.761
-123.594
-125.54
-127.591
-129.732
-131.941
-134.201
-136.497
-138.813
-141.141
-143.468
-145.776
-148.046
-150.253
-152.374
-154.393
-156.294
-158.063
-159.689
-161.164
-162.481
-163.636
-164.623
-165.436
-166.067
-166.508
-166.754
-166.8
-166.642
-166.277
-165.703
-164.92
-163.931
-162.736
-161.34
-159.745
-157.953
-155.968
-153.795
-151.439
-148.904
-146.196
-143.322
-140.287
-137.1
-133.768
-130.3
-126.702
-122.984
-119.152
-115.217
-111.185
-107.064
-102.864
-98.591
-94.254
-89.86
-85.418
-80.935
-76.419
-71.877
-67.317
-62.745
-58.168
-53.591
-49.022
-44.466
-39.928
-35.414
-30.93
-26.48
-22.069
-17.703
-13.386
-9.123
-4.918
-0.775
3.303
7.311
11.246
15.105
18.884
22.579
26.189
29.709
33.136
36.468
39.702
42.835
45.864
48.787
51.602
54.307
56.899
59.378
61.742
63.989
66.119
68.131
70.024
71.8
73.457
74.996
76.418
77.725
78.916
79.993
80.958
81.812
82.556
83.192
83.722
84.147
84.47
84.692
84.814
84.84
84.771
84.609
84.356
84.014
83.583
83.067
82.465
81.779
81.01
80.159
79.226
78.21
77.112
75.932
74.667
73.318
71.883
70.36
68.747
67.042
65.245
63.352
61.364
59.278
57.093
54.809
52.425
49.942
47.359
44.678
41.899
39.024
36.056
32.999
29.856
26.632
23.335
19.969
16.544
13.067
9.547
5.996
2.423
-1.159
-4.736
-8.295
-11.82
-15.295
-18.703
-22.027
-25.249
-28.352
-31.316
-34.126
-36.764
-39.213
-41.457
-43.479
-45.265
-46.8
-48.069
-49.059
-49.759
-50.158
-50.247
-50.019
-49.469
-48.595
-47.395
-45.87
-44.023
-41.858
-39.382
-36.604
-33.534
-30.185
-26.573
-22.717
-18.637
-14.358
-9.906
-5.308
-0.593
4.208
9.067
13.953
18.836
23.688
28.483
33.193
37.788
42.239
46.515
50.584
54.417
57.982
61.249
64.192
66.787
69.016
70.871
72.338
73.408
74.07
74.303
74.101
73.46
72.379
70.864
68.932
66.602
63.914
60.926
57.688
54.252
50.653
46.902
43.018
39.016
34.913
30.739
26.507
22.215
17.877
13.507
9.109
4.688
0.192
-4.473
-9.387
-14.624
-20.209
-26.12
-32.354
-38.911
-45.784
-52.961
-60.353
-67.845
-75.394
-82.922
-90.311
-97.395
-103.78
-109.042
-112.961
-115.346
-116.088
-115.316
-113.072
-109.55
-105.425
-101.302
-97.507
-94.28
-91.445
-88.477
-85.185
-81.119
-75.124
-66.196
-53.556
-36.602
-15.561
8.925
36.717
66.542
95.533
121.122
141.002
154.802
164.356
169.432
166.953
151.792
118.717
67.107
0.269
-76.518
-156.517
-234.484
-304.181
-357.653
-390.601
-401.537
-393.516
-374.822
-351.051
-325.356
-299.127
-270.683
-240.472
-210.771
-183.874
-162.677
-148.526
-141.099
-139.628
-142.733
-148.791
-156.366
-163.84
-169.774
-173.429
-174.477
-172.927
-169.172
-163.724
-157.175
-150.333
-143.83
-137.907
-132.623
-127.879
-123.455
-119.187
-114.878
-110.22
-105.029
-99.253
-92.894
-86.049
-78.82
-71.253
-63.417
-55.405
-47.28
-39.107
-30.949
-22.821
-14.744
-6.743
1.168
8.97
16.645
24.189
31.605
38.883
46.014
52.983
59.771
66.362
72.747
78.917
84.868
90.59
96.075
101.316
106.306
111.041
115.514
119.717
123.641
127.278
130.627
133.69
136.467
138.964
141.182
143.127
144.807
146.228
147.398
148.324
149.014
149.476
149.721
149.762
149.611
149.282
148.788
148.145
147.369
146.474
145.478
144.394
143.24
142.029
140.777
139.5
138.211
136.925
135.655
134.415
133.215
132.068
130.985
129.975
129.046
128.206
127.463
126.823
126.291
125.872
125.568
125.384
125.321
125.381
125.564
125.87
126.296
126.842
127.505
128.282
129.168
130.16
131.254
132.444
133.727
135.098
136.552
138.085
139.693
141.371
143.116
144.924
146.792
148.719
150.701
152.736
154.824
156.964
159.154
161.394
163.684
166.025
168.416
170.86
173.357
175.909
178.517
181.184
183.91
186.699
189.552
192.47
195.454
198.505
201.624
204.809
208.061
211.377
214.754
218.189
221.678
225.215
228.794
232.406
236.041
239.691
243.344
246.987
250.607
254.19
257.722
261.186
264.567
267.849
271.013
274.042
276.917
279.62
282.131
284.431
286.502
288.324
289.879
291.149
292.118
292.77
293.088
293.059
292.669
291.908
290.764
289.23
287.298
284.965
282.227
279.085
275.542
271.602
267.271
262.559
257.478
252.041
246.263
240.158
233.745
227.043
220.074
212.861
205.427
197.796
189.996
182.059
174.016
165.899
157.741
149.569
141.414
133.309
125.282
117.365
109.582
101.954
94.509
87.276
80.286
73.569
67.142
61.003
55.157
49.612
44.371
39.432
34.79
30.423
26.33
22.526
19.023
15.836
12.961
10.366
8.026
5.912
4.01
2.331
0.869
-0.403
-1.494
-2.405
-3.13
-3.641
-3.964
-4.184
-4.375
-4.613
-4.946
-5.386
-5.958
-6.697
-7.64
-8.842
-10.339
-12.137
-14.277
-16.816
-19.817
-23.364
-27.465
-32.042
-37.034
-42.377
-48.026
-53.969
-60.174
-66.582
-73.153
-79.848
-86.641
-93.527
-100.463
-107.373
-114.187
-120.814
-127.223
-133.454
-139.518
-145.421
-151.163
-156.716
-162.067
-167.229
-172.173
-176.846
-181.189
-185.126
-188.616
-191.647
-194.193
-196.222
-197.671
-198.462
-198.566
-197.992
-196.756
-194.899
-192.437
-189.413
-185.973
-182.217
-178.172
-173.8
-168.892
-163.269
-156.927
-149.821
-141.863
-133.279
-124.417
-115.849
-108.635
-103.595
-101.172
-101.888
-105.963
-112.899
-121.9
-131.578
-139.717
-144.496
-144.369
-137.537
-122.8
-99.889
-69.097
-31.722
9.887
53.481
96.475
135.587
167.758
190.355
201.191
198.851
183.344
155.668
117.438
71.307
18.39
-42.06
-108.612
-178.075
-243.462
-293.509
-322.012
-328.167
-315.67
-293.607
-266.622
-234.846
-198.763
-158.781
-120.186
-91.275
-76.706
-76.579
-85.84
-97.846
-108.72
-117.658
-126.304
-135.628
-144.757
-152.254
-156.477
-156.838
-154.026
-148.947
-142.579
-135.94
-129.685
-124.14
-119.495
-115.719
-112.627
-110.07
-107.833
-105.581
-103.128
-100.432
-97.495
-94.418
-91.293
-88.141
-85.018
-82.018
-79.199
-76.618
-74.319
-72.295
-70.545
-69.086
-67.927
-67.08
-66.548
-66.318
-66.37
-66.698
-67.301
-68.179
-69.332
-70.743
-72.398
-74.277
-76.356
-78.613
-81.017
-83.536
-86.137
-88.788
-91.461
-94.13
-96.768
-99.346
-101.834
-104.202
-106.417
-108.445
-110.252
-111.8
-113.059
-114
-114.599
-114.834
-114.683
-114.127
-113.153
-111.752
-109.914
-107.626
-104.871
-101.631
-97.901
-93.696
-89.038
-83.949
-78.448
-72.559
-66.317
-59.765
-52.939
-45.856
-38.514
-30.908
-23.054
-14.984
-6.753
1.586
10.001
18.48
27.016
35.588
44.17
52.751
61.343
69.975
78.636
87.266
95.754
103.991
111.903
119.447
126.598
133.326
139.579
145.295
150.423
154.933
158.79
161.941
164.293
165.743
166.245
165.833
164.602
162.645
160.017
156.754
152.881
148.444
143.504
138.112
132.3
126.088
119.515
112.645
105.585
98.447
91.295
84.136
76.934
69.66
62.314
54.907
47.448
39.929
32.346
24.713
17.066
9.445
1.872
-5.65
-13.144
-20.629
-28.105
-35.549
-42.921
-50.191
-57.339
-64.349
-71.2
-77.867
-84.331
-90.588
-96.651
-102.531
-108.231
-113.749
-119.076
-124.206
-129.141
-133.881
-138.432
-142.794
-146.969
-150.958
-154.768
-158.403
-161.866
-165.152
-168.256
-171.171
-173.891
-176.412
-178.728
-180.831
-182.715
-184.372
-185.799
-186.988
-187.933
-188.624
-189.054
-189.213
-189.093
-188.686
-187.983
-186.977
-185.66
-184.029
-182.078
-179.802
-177.2
-174.268
-171.005
-167.413
-163.491
-159.242
-154.669
-149.777
-144.571
-139.062
-133.259
-127.173
-120.815
-114.201
-107.344
-100.262
-92.97
-85.486
-77.828
-70.014
-62.065
-54.005
-45.855
-37.637
-29.376
-21.095
-12.817
-4.566
3.637
11.772
19.817
27.754
35.561
43.219
50.708
58.011
65.109
71.983
78.615
84.99
91.098
96.928
102.474
107.727
112.685
117.347
121.714
125.786
129.562
133.044
136.233
139.135
141.758
144.112
146.204
148.042
149.638
151.01
152.171
153.13
153.89
154.444
154.794
154.948
154.918
154.714
154.345
153.828
153.199
152.509
151.817
151.164
150.568
150.036
149.582
149.227
149
148.919
148.975
149.162
149.491
149.992
150.68
151.52
152.41
153.196
153.72
153.88
153.579
152.695
151.171
149.031
146.388
143.507
140.666
137.985
135.609
133.73
132.282
131.06
129.701
127.541
124.112
119.276
112.771
104.311
94.163
82.979
71.926
62.755
56.831
55.091
58.71
68.971
86.643
111.846
143.736
180.027
218.048
255.533
290.25
321.265
348.45
370.213
383.298
381.781
359.926
316.54
255.063
183.421
108.705
32.999
-43.457
-120.536
-194.229
-255.203
-295.098
-309.394
-299.689
-273.356
-238.753
-203.538
-171.93
-145.672
-125.578
-110.284
-99.837
-94.387
-93.047
-96.829
-105.343
-116.973
-130.804
-144.502
-156.02
-164.764
-170.254
-172.585
-172.491
-170.585
-167.541
-164.34
-161.655
-159.748
-158.764
-158.601
-159.014
-159.818
-160.736
-161.395
-161.592
-161.256
-160.38
-159.057
-157.36
-155.313
-152.986
-150.456
-147.779
-145.009
-142.178
-139.309
-136.429
-133.564
-130.737
-127.969
-125.266
-122.629
-120.056
-117.539
-115.078
-112.681
-110.347
-108.083
-105.891
-103.767
-101.706
-99.7
-97.736
-95.805
-93.897
-92
-90.107
-88.21
-86.303
-84.383
-82.445
-80.479
-78.476
-76.423
-74.311
-72.129
-69.867
-67.516
-65.066
-62.512
-59.848
-57.069
-54.173
-51.156
-48.014
-44.745
-41.347
-37.82
-34.163
-30.378
-26.468
-22.436
-18.288
-14.029
-9.669
-5.216
-0.679
3.93
8.601
13.319
18.073
22.848
27.629
32.402
37.15
41.858
46.509
51.088
55.578
59.963
64.228
68.358
72.339
76.156
79.796
83.247
86.497
89.533
92.345
94.924
97.259
99.344
101.17
102.731
104.024
105.043
105.786
106.252
106.441
106.353
105.99
105.355
104.453
103.288
101.867
100.196
98.283
96.137
93.766
91.182
88.393
85.41
82.245
78.91
75.415
71.772
67.995
64.093
60.081
55.971
51.774
47.502
43.169
38.786
34.365
29.916
25.452
20.981
16.515
12.061
7.63
3.228
-1.136
-5.456
-9.725
-13.939
-18.091
-22.178
-26.196
-30.142
-34.012
-37.805
-41.518
-45.149
-48.699
-52.164
-55.545
-58.84
-62.047
-65.167
-68.198
-71.139
-73.989
-76.747
-79.411
-81.982
-84.455
-86.83
-89.103
-91.27
-93.327
-95.27
-97.093
-98.79
-100.353
-101.776
-103.051
-104.169
-105.121
-105.897
-106.487
-106.879
-107.062
-107.023
-106.751
-106.233
-105.455
-104.406
-103.074
-101.448
-99.518
-97.272
-94.701
-91.797
-88.55
-84.955
-81.004
-76.691
-72.013
-66.966
-61.551
-55.768
-49.622
-43.117
-36.262
-29.064
-21.535
-13.689
-5.54
2.895
11.599
20.55
29.725
39.099
48.644
58.329
68.123
77.991
87.897
97.804
107.679
117.484
127.187
136.752
146.146
155.338
164.295
172.983
181.368
189.413
197.086
204.354
211.19
217.568
223.463
228.854
233.725
238.066
241.869
245.119
247.8
249.89
251.377
252.261
252.549
252.251
251.379
249.954
248.012
245.61
242.802
239.632
236.128
232.296
228.157
223.742
219.088
214.247
209.237
204.059
198.731
193.282
187.742
182.136
176.425
170.502
164.278
157.688
150.705
143.358
135.618
127.428
118.824
109.904
100.891
92.109
83.744
75.862
68.616
62.162
56.539
51.713
47.356
42.953
38.236
33.12
27.5
21.38
15.036
9.044
4.376
2.107
2.942
7.358
15.871
28.955
46.664
68.476
93.334
120.073
147.845
175.837
202.683
226.482
245.389
257.742
262.272
257.831
242.76
216.311
179.582
134.321
82.806
25.529
-39.404
-111.001
-185.213
-253.707
-304.981
-333.686
-339.684
-327.501
-305.254
-276.473
-243.02
-207.282
-171.689
-141.378
-120.184
-108.013
-101.9
-97.621
-92.594
-86.891
-82.501
-80.863
-81.703
-83.795
-85.384
-85.545
-84.435
-82.546
-80.489
-78.799
-77.931
-78.173
-79.695
-82.476
-86.281
-90.865
-96
-101.424
-106.851
-112.09
-117.003
-121.508
-125.602
-129.238
-132.373
-135.009
-137.189
-138.988
-140.514
-141.893
-143.228
-144.604
-146.085
-147.705
-149.485
-151.429
-153.529
-155.769
-158.14
-160.659
-163.346
-166.213
-169.26
-172.46
-175.77
-179.128
-182.478
-185.767
-188.95
-191.993
-194.871
-197.565
-200.07
-202.387
-204.513
-206.435
-208.136
-209.598
-210.805
-211.749
-212.423
-212.823
-212.948
-212.799
-212.38
-211.694
-210.742
-209.525
-208.041
-206.287
-204.262
-201.967
-199.406
-196.584
-193.508
-190.188
-186.635
-182.862
-178.882
-174.71
-170.359
-165.845
-161.184
-156.391
-151.485
-146.482
-141.402
-136.263
-131.085
-125.889
-120.693
-115.518
-110.383
-105.308
-100.31
-95.408
-90.619
-85.957
-81.44
-77.08
-72.893
-68.89
-65.085
-61.488
-58.11
-54.958
-52.041
-49.365
-46.933
-44.748
-42.812
-41.125
-39.687
-38.494
-37.544
-36.833
-36.355
-36.103
-36.071
-36.249
-36.628
-37.198
-37.948
-38.867
-39.945
-41.168
-42.527
-44.009
-45.603
-47.298
-49.082
-50.945
-52.876
-54.865
-56.902
-58.978
-61.082
-63.208
-65.347
-67.491
-69.635
-71.772
-73.896
-76.003
-78.088
-80.147
-82.177
-84.175
-86.137
-88.062
-89.947
-91.791
-93.591
-95.346
-97.053
-98.711
-100.317
-101.868
-103.361
-104.792
-106.158
-107.453
-108.674
-109.814
-110.868
-111.83
-112.693
-113.45
-114.093
-114.615
-115.007
-115.26
-115.366
-115.317
-115.102
-114.713
-114.141
-113.378
-112.416
-111.247
-109.863
-108.257
-106.424
-104.359
-102.057
-99.514
-96.729
-93.701
-90.43
-86.918
-83.167
-79.182
-74.968
-70.53
-65.876
-61.015
-55.957
-50.712
-45.294
-39.716
-33.992
-28.14
-22.178
-16.122
-9.994
-3.812
2.401
8.625
14.837
21.016
27.139
33.185
39.132
44.956
50.637
56.153
61.485
66.612
71.517
76.181
80.588
84.725
88.578
92.134
95.384
98.316
100.921
103.191
105.12
106.704
107.939
108.828
109.374
109.586
109.475
109.052
108.329
107.32
106.039
104.498
102.71
100.684
98.432
95.972
93.319
90.489
87.497
84.352
81.067
77.654
74.126
70.497
66.782
62.994
59.156
55.302
51.47
47.708
44.059
40.55
37.217
34.097
31.229
28.663
26.426
24.511
22.914
21.613
20.572
19.779
19.166
18.615
18.089
17.587
17.174
17.039
17.288
17.926
19.063
20.763
22.862
25.107
27
27.807
27.119
24.698
20.216
13.675
5.488
-3.646
-12.479
-19.504
-23.686
-24.056
-19.476
-9.342
6.508
27.737
53.133
81.252
110.852
140.211
166.978
189.026
204.371
211.245
208.612
195.422
170.578
134.825
90.862
41.164
-11.635
-66.613
-125.129
-185.269
-242.722
-291.114
-321.844
-330.914
-318.53
-287.853
-246.131
-199.872
-154.888
-117.605
-91.488
-77.776
-75.351
-78.938
-83.386
-85.783
-85.161
-83.401
-82.46
-82.476
-82.448
-80.857
-77.064
-71.588
-65.499
-59.857
-55.036
-51.073
-48.086
-46.089
-45.024
-44.733
-44.82
-44.878
-44.739
-44.345
-43.673
-42.754
-41.583
-40.158
-38.545
-36.825
-35.046
-33.232
-31.388
-29.508
-27.617
-25.755
-23.948
-22.207
-20.53
-18.9
-17.303
-15.726
-14.15
-12.55
-10.907
-9.202
-7.422
-5.56
-3.606
-1.544
0.638
2.958
5.427
8.055
10.849
13.812
16.944
20.242
23.7
27.31
31.065
34.957
38.981
43.128
47.388
51.752
56.207
60.741
65.34
69.987
74.664
79.355
84.04
88.702
93.324
97.887
102.373
106.765
111.044
115.196
119.203
123.049
126.719
130.198
133.473
136.532
139.364
141.957
144.304
146.396
148.227
149.791
151.083
152.102
152.843
153.306
153.491
153.399
153.033
152.394
151.487
150.317
148.891
147.215
145.298
143.148
140.774
138.186
135.395
132.411
129.245
125.907
122.41
118.766
114.984
111.078
107.058
102.936
98.722
94.428
90.063
85.639
81.164
76.648
72.1
67.53
62.946
58.358
53.772
49.198
44.643
40.116
35.624
31.175
26.775
22.434
18.158
13.954
9.829
5.792
1.848
-1.995
-5.73
-9.35
-12.848
-16.217
-19.45
-22.541
-25.482
-28.266
-30.887
-33.338
-35.611
-37.701
-39.601
-41.305
-42.808
-44.103
-45.187
-46.056
-46.704
-47.13
-47.33
-47.302
-47.046
-46.56
-45.846
-44.904
-43.736
-42.345
-40.735
-38.91
-36.875
-34.635
-32.196
-29.565
-26.749
-23.756
-20.594
-17.272
-13.799
-10.185
-6.44
-2.573
1.405
5.485
9.659
13.915
18.247
22.647
27.108
31.624
36.187
40.793
45.437
50.114
54.823
59.562
64.33
69.127
73.955
78.816
83.714
88.654
93.638
98.67
103.756
108.901
114.111
119.391
124.747
130.186
135.715
141.341
147.071
152.912
158.866
164.937
171.129
177.442
183.875
190.425
197.087
203.856
210.729
217.701
224.764
231.911
239.132
246.421
253.768
261.162
268.588
276.03
283.47
290.892
298.282
305.622
312.892
320.069
327.133
334.068
340.856
347.476
353.897
360.081
365.992
371.606
376.901
381.857
386.45
390.666
394.506
397.995
401.167
404.042
406.625
408.901
410.87
412.537
413.914
415.023
415.857
416.417
416.728
416.816
416.691
416.328
415.633
414.462
412.692
410.193
406.833
402.566
397.403
391.458
384.972
378.154
371.158
364.149
357.309
350.677
344.068
337.016
328.807
318.936
307.239
293.645
278.022
260.364
241.145
221.508
203.243
188.014
176.876
170.685
170.455
177.186
191.422
212.849
240.011
271.156
304.329
336.921
366.266
389.942
407.174
418.652
423.958
420.203
401.764
363.682
305.473
231.661
149.666
64.455
-21.855
-107.503
-189.538
-260.027
-310.035
-335.081
-334.426
-313.449
-281.493
-246.577
-216.841
-197.544
-188.232
-186.291
-186.618
-184.705
-180.252
-174.518
-169.653
-166.997
-165.876
-165.139
-163.607
-160.546
-155.651
-149.027
-141.164
-132.724
-124.441
-116.719
-109.606
-103.128
-97.381
-92.402
-88.146
-84.355
-80.551
-76.443
-71.932
-66.989
-61.663
-55.959
-49.842
-43.353
-36.609
-29.709
-22.731
-15.721
-8.68
-1.642
5.328
12.162
18.778
25.124
31.176
36.917
42.335
47.425
52.178
56.602
60.721
64.554
68.114
71.413
74.457
77.259
79.842
82.228
84.442
86.502
88.425
90.225
91.917
93.515
95.029
96.469
97.842
99.155
100.421
101.647
102.844
104.019
105.178
106.326
107.467
108.603
109.733
110.856
111.969
113.068
114.147
115.202
116.224
117.206
118.139
119.013
119.818
120.543
121.177
121.708
122.125
122.418
122.574
122.585
122.439
122.126
121.637
120.965
120.102
119.041
117.776
116.304
114.62
112.722
110.61
108.284
105.746
102.998
100.045
96.892
93.548
90.019
86.316
82.447
78.426
74.264
69.973
65.567
61.06
56.466
51.799
47.074
42.305
37.508
32.695
27.881
23.079
18.302
13.563
8.873
4.244
-0.315
-4.794
-9.184
-13.479
-17.671
-21.754
-25.725
-29.578
-33.312
-36.925
-40.417
-43.787
-47.037
-50.17
-53.189
-56.097
-58.902
-61.607
-64.221
-66.75
-69.203
-71.589
-73.916
-76.195
-78.435
-80.646
-82.838
-85.023
-87.211
-89.412
-91.637
-93.895
-96.199
-98.557
-100.98
-103.477
-106.057
-108.729
-111.501
-114.382
-117.378
-120.496
-123.741
-127.119
-130.635
-134.29
-138.089
-142.033
-146.121
-150.353
-154.726
-159.238
-163.883
-168.656
-173.55
-178.556
-183.666
-188.87
-194.156
-199.514
-204.93
-210.39
-215.88
-221.385
-226.888
-232.371
-237.819
-243.212
-248.532
-253.76
-258.878
-263.867
-268.708
-273.381
-277.869
-282.153
-286.214
-290.033
-293.595
-296.882
-299.88
-302.576
-304.959
-307.019
-308.748
-310.14
-311.19
-311.895
-312.251
-312.259
-311.919
-311.232
-310.204
-308.839
-307.145
-305.133
-302.813
-300.2
-297.308
-294.151
-290.746
-287.111
-283.263
-279.221
-275.003
-270.627
-266.114
-261.486
-256.761
-251.958
-247.095
-242.192
-237.267
-232.337
-227.42
-222.528
-217.675
-212.875
-208.143
-203.493
-198.938
-194.484
-190.146
-185.94
-181.888
-178.025
-174.373
-170.941
-167.732
-164.741
-161.956
-159.371
-156.962
-154.691
-152.535
-150.471
-148.501
-146.649
-144.903
-143.235
-141.594
-139.887
-138.053
-136.075
-133.946
-131.696
-129.385
-127.059
-124.843
-122.947
-121.462
-120.381
-119.574
-118.737
-117.671
-116.341
-114.664
-112.547
-110.132
-107.73
-105.924
-105.621
-107.436
-111.586
-118.277
-127.608
-139.212
-152.375
-165.86
-177.874
-186.982
-192.242
-192.499
-186.603
-174.054
-154.855
-129.91
-101.036
-69.67
-37.095
-5.491
22.565
44.798
59.031
64.111
59.726
44.789
19.16
-15.151
-55.957
-100.787
-148.584
-201.182
-258.368
-316.644
-369.587
-408.541
-428.165
-427.619
-410.259
-382.4
-350.626
-321.191
-297.805
-282.069
-273.163
-267.956
-264.707
-262.188
-260.512
-261.644
-266.243
-274.55
-286.167
-299.239
-312.18
-323.888
-333.712
-341.717
-348.122
-352.992
-356.383
-358.528
-359.942
-361.174
-362.584
-364.339
-366.405
-368.673
-371.075
-373.48
-375.662
-377.448
-378.734
-379.47
-379.693
-379.466
-378.835
-377.865
-376.628
-375.15
-373.427
-371.441
-369.152
-366.53
-363.561
-360.223
-356.497
-352.372
-347.846
-342.924
-337.615
-331.92
-325.837
-319.364
-312.504
-305.262
-297.651
-289.679
-281.36
-272.706
-263.736
-254.468
-244.924
-235.123
-225.084
-214.827
-204.373
-193.742
-182.958
-172.041
-161.013
-149.899
-138.722
-127.508
-116.284
-105.075
-93.907
-82.806
-71.797
-60.905
-50.151
-39.557
-29.143
-18.928
-8.931
0.833
10.347
19.598
28.571
37.256
45.643
53.723
61.489
68.937
76.064
82.867
89.345
95.5
101.334
106.85
112.052
116.948
121.543
125.846
129.868
133.619
137.111
140.358
143.373
146.171
148.766
151.173
153.408
155.485
157.421
159.229
160.925
162.524
164.04
165.487
166.878
168.226
169.544
170.841
172.129
173.417
174.713
176.025
177.36
178.722
180.117
181.547
183.016
184.523
186.069
187.654
189.273
190.926
192.605
194.307
196.025
197.752
199.48
201.2
202.901
204.576
206.211
207.797
209.321
210.771
212.135
213.4
214.555
215.585
216.48
217.225
217.811
218.224
218.454
218.489
218.32
217.936
217.33
216.494
215.42
214.103
212.54
210.726
208.659
206.338
203.764
200.939
197.865
194.547
190.99
187.201
183.188
178.962
174.534
169.916
165.122
160.168
155.069
149.843
144.508
139.083
133.588
128.045
122.474
116.9
111.344
105.832
100.387
95.033
89.796
84.698
79.764
75.016
70.475
66.164
62.102
58.309
54.804
51.604
48.724
46.181
43.987
42.154
40.691
39.606
38.904
38.588
38.66
39.118
39.96
41.181
42.775
44.732
47.043
49.693
52.669
55.951
59.518
63.347
67.412
71.685
76.137
80.738
85.459
90.269
95.138
100.039
104.943
109.823
114.648
119.389
124.014
128.489
132.785
136.869
140.714
144.294
147.584
150.562
153.214
155.526
157.482
159.064
160.245
161.002
161.324
161.203
160.644
159.658
158.256
156.461
154.317
151.868
149.159
146.228
143.086
139.743
136.213
132.523
128.716
124.827
120.863
116.814
112.674
108.437
104.094
99.621
94.944
89.973
84.623
78.831
72.575
65.849
58.662
50.982
42.762
34.053
24.998
15.845
6.928
-1.497
-9.234
-16.004
-21.517
-25.639
-28.373
-30.063
-31.348
-32.74
-34.658
-37.434
-41.083
-45.35
-49.746
-53.279
-54.595
-52.255
-44.811
-31.213
-10.933
15.998
48.854
86.47
126.735
166.15
201.827
231.575
253.937
269.623
277.058
272.006
251.593
213.526
159.721
97.171
30.628
-37.364
-104.235
-168.81
-225.786
-266.107
-285.211
-281.81
-259.657
-227.997
-193.028
-158.335
-125.678
-93.803
-63.116
-35.803
-13.911
0.532
7.073
6.903
1.709
-6.594
-16.246
-25.558
-32.983
-37.618
-39.084
-37.485
-33.421
-27.593
-20.753
-13.82
-7.502
-2.13
2.166
5.46
7.983
9.946
11.597
13.265
15.137
17.263
19.638
22.177
24.798
27.456
30.092
32.625
35.007
37.2
39.174
40.935
42.484
43.814
44.924
45.818
46.501
46.994
47.318
47.486
47.507
47.391
47.144
46.776
46.301
45.734
45.093
44.396
43.66
42.903
42.143
41.397
40.681
40.005
39.378
38.81
38.313
37.898
37.579
37.366
37.269
37.297
37.456
37.752
38.19
38.769
39.489
40.347
41.342
42.471
43.728
45.108
46.606
48.213
49.921
51.721
53.602
55.551
57.557
59.606
61.683
63.776
65.869
67.948
69.999
72.006
73.957
75.837
77.632
79.33
80.919
82.387
83.724
84.92
85.966
86.855
87.582
88.141
88.529
88.743
88.781
88.644
88.332
87.847
87.192
86.371
85.389
84.252
82.967
81.543
79.988
78.313
76.527
74.641
72.668
70.619
68.507
66.344
64.143
61.916
59.676
57.436
55.207
53.002
50.831
48.705
46.635
44.629
42.698
40.85
39.092
37.431
35.875
34.428
33.097
31.885
30.795
29.832
28.996
28.289
27.712
27.265
26.946
26.754
26.686
26.74
26.911
27.196
27.589
28.086
28.68
29.366
30.137
30.986
31.908
32.896
33.942
35.04
36.182
37.363
38.575
39.812
41.068
42.337
43.613
44.889
46.161
47.422
48.668
49.894
51.094
52.265
53.403
54.505
55.569
56.591
57.57
58.505
59.395
60.238
61.036
61.788
62.494
63.154
63.772
64.347
64.883
65.381
65.844
66.275
66.676
67.051
67.401
67.729
68.035
68.323
68.593
68.848
69.089
69.318
69.536
69.745
69.947
70.141
70.325
70.5
70.661
70.807
70.933
71.037
71.113
71.157
71.165
71.133
71.054
70.924
70.733
70.474
70.138
69.716
69.196
68.567
67.819
66.94
65.924
64.762
63.448
61.977
60.343
58.543
56.572
54.428
52.106
49.604
46.917
44.046
40.992
37.761
34.357
30.788
27.062
23.186
19.172
15.027
10.754
6.355
1.826
-2.832
-7.608
-12.492
-17.465
-22.5
-27.555
-32.589
-37.547
-42.391
-47.09
-51.621
-55.969
-60.117
-64.04
-67.717
-71.108
-74.173
-76.866
-79.139
-80.963
-82.364
-83.413
-84.209
-84.879
-85.507
-86.178
-86.995
-87.962
-89.005
-89.965
-90.562
-90.591
-89.961
-88.55
-86.286
-83.341
-79.981
-76.668
-74.119
-72.763
-72.879
-74.833
-78.599
-83.669
-89.244
-93.99
-96.315
-95.054
-88.964
-76.639
-57.388
-31.148
1.42
38.665
78.861
120.447
161.093
197.999
228.749
251.074
263.479
265.342
255.701
234.4
203.185
164.358
119.972
70.685
15.995
-42.664
-100.315
-148.53
-179.88
-192.015
-186.566
-169.172
-144.982
-115.282
-82.485
-49.426
-19.157
2.957
15.303
19.975
19.136
16.758
14.782
12.193
8.988
4.815
-0.12
-3.931
-5.743
-5.595
-3.758
-1.273
0.878
2.414
3.196
3.059
2.049
0.236
-2.308
-5.28
-8.308
-11.202
-13.858
-16.229
-18.357
-20.255
-21.9
-23.317
-24.557
-25.655
-26.654
-27.578
-28.43
-29.232
-30.002
-30.749
-31.484
-32.207
-32.905
-33.567
-34.174
-34.709
-35.166
-35.544
-35.841
-36.055
-36.18
-36.212
-36.147
-35.977
-35.697
-35.302
-34.787
-34.153
-33.403
-32.545
-31.587
-30.54
-29.412
-28.209
-26.939
-25.607
-24.218
-22.778
-21.293
-19.769
-18.212
-16.63
-15.031
-13.423
-11.814
-10.209
-8.615
-7.036
-5.476
-3.939
-2.428
-0.945
0.508
1.929
3.317
4.671
5.989
7.27
8.516
9.724
10.897
12.034
13.136
14.202
15.233
16.23
17.191
18.115
19.003
19.852
20.661
21.427
22.148
22.823
23.448
24.021
24.538
24.996
25.392
25.721
25.98
26.164
26.268
26.289
26.221
26.062
25.806
25.45
24.992
24.429
23.758
22.977
22.087
21.085
19.974
18.754
17.426
15.995
14.463
12.835
11.118
9.316
7.439
5.493
3.487
1.431
-0.664
-2.79
-4.934
-7.085
-9.232
-11.362
-13.464
-15.527
-17.537
-19.485
-21.358
-23.145
-24.838
-26.425
-27.9
-29.252
-30.476
-31.565
-32.513
-33.317
-33.972
-34.477
-34.83
-35.032
-35.082
-34.982
-34.737
-34.35
-33.825
-33.169
-32.387
-31.488
-30.478
-29.367
-28.163
-26.875
-25.513
-24.086
-22.604
-21.077
-19.513
-17.921
-16.31
-14.687
-13.059
-11.434
-9.817
-8.213
-6.626
-5.061
-3.521
-2.007
-0.521
0.936
2.364
3.764
5.137
6.487
7.815
9.125
10.421
11.707
12.988
14.268
15.553
16.849
18.163
19.5
20.866
22.269
23.713
25.204
26.746
28.344
30
31.716
33.492
35.328
37.225
39.18
41.192
43.258
45.375
47.537
49.739
51.976
54.241
56.525
58.82
61.116
63.406
65.678
67.925
70.137
72.304
74.416
76.463
78.433
80.313
82.092
83.757
85.298
86.705
87.969
89.085
90.048
90.859
91.517
92.02
92.366
92.553
92.58
92.442
92.137
91.66
91.009
90.178
89.165
87.965
86.571
84.982
83.192
81.198
79.002
76.61
74.035
71.288
68.391
65.367
62.247
59.067
55.868
52.69
49.582
46.606
43.813
41.233
38.881
36.749
34.804
33.021
31.339
29.656
27.935
26.202
24.531
23.082
21.973
21.212
20.868
21.051
21.624
22.283
22.517
21.575
18.935
14.376
7.607
-1.636
-13.145
-26.318
-40.009
-52.584
-62.722
-69.343
-71.185
-67.045
-56.224
-38.6
-14.954
13.264
44.753
77.267
108.045
134.963
155.387
168.457
174.072
169.63
154.273
127.363
88.297
40.338
-15.491
-78.478
-144.646
-209.412
-263.668
-298.142
-309.322
-297.25
-266.975
-225.779
-178.472
-130.355
-87.54
-54.087
-33.134
-24.606
-23.358
-24.708
-26.02
-26.466
-28.223
-32.742
-39.078
-45.507
-49.955
-51.249
-49.553
-45.592
-40.189
-34.061
-27.978
-22.558
-18.118
-14.816
-12.6
-11.296
-10.775
-10.841
-11.199
-11.677
-12.21
-12.793
-13.507
-14.417
-15.541
-16.927
-18.641
-20.727
-23.222
-26.148
-29.488
-33.229
-37.365
-41.883
-46.77
-52.007
-57.563
-63.401
-69.498
-75.832
-82.386
-89.141
-96.071
-103.153
-110.356
-117.651
-125.008
-132.396
-139.784
-147.143
-154.443
-161.658
-168.766
-175.747
-182.582
-189.25
-195.73
-202.001
-208.045
-213.847
-219.392
-224.667
-229.661
-234.368
-238.785
-242.909
-246.743
-250.287
-253.544
-256.521
-259.221
-261.654
-263.827
-265.75
-267.433
-268.888
-270.128
-271.166
-272.017
-272.696
-273.216
-273.591
-273.837
-273.967
-273.994
-273.931
-273.789
-273.58
-273.315
-273.001
-272.648
-272.262
-271.85
-271.414
-270.959
-270.485
-269.991
-269.477
-268.94
-268.375
-267.777
-267.141
-266.459
-265.726
-264.932
-264.07
-263.131
-262.107
-260.99
-259.771
-258.442
-256.995
-255.425
-253.724
-251.888
-249.913
-247.795
-245.534
-243.129
-240.581
-237.894
-235.07
-232.117
-229.041
-225.852
-222.56
-219.178
-215.718
-212.196
-208.629
-205.032
-201.426
-197.828
-194.258
-190.736
-187.283
-183.918
-180.662
-177.534
-174.554
-171.738
-169.106
-166.672
-164.452
-162.458
-160.703
-159.195
-157.943
-156.951
-156.224
-155.761
-155.561
-155.62
-155.932
-156.487
-157.273
-158.277
-159.482
-160.869
-162.416
-164.101
-165.897
-167.779
-169.717
-171.681
-173.64
-175.563
-177.417
-179.168
-180.784
-182.231
-183.476
-184.488
-185.235
-185.686
-185.813
-185.588
-184.985
-183.982
-182.556
-180.69
-178.367
-175.574
-172.3
-168.537
-164.281
-159.53
-154.286
-148.555
-142.343
-135.662
-128.527
-120.955
-112.966
-104.583
-95.83
-86.734
-77.325
-67.633
-57.692
-47.536
-37.2
-26.722
-16.14
-5.494
5.176
15.83
26.428
36.929
47.295
57.487
67.467
77.199
86.649
95.783
104.571
112.981
120.988
128.565
135.69
142.341
148.502
154.156
159.293
163.903
167.98
171.518
174.518
176.977
178.898
180.285
181.145
181.487
181.322
180.668
179.546
177.98
175.997
173.626
170.894
167.834
164.474
160.843
156.966
152.866
148.57
144.106
139.503
134.788
129.985
125.116
120.204
115.272
110.341
105.434
100.572
95.777
91.075
86.504
82.107
77.939
74.045
70.458
67.214
64.351
61.905
59.926
58.437
57.426
56.88
56.763
57.025
57.649
58.563
59.652
60.885
62.248
63.796
65.731
68.173
71.152
74.797
79.151
84.037
89.21
94.181
98.229
100.906
101.88
100.751
97.475
92.473
86.493
80.789
76.87
75.905
79.079
87.711
102.608
123.93
151.138
182.927
217.626
253.55
288.487
319.592
344.243
360.304
366.213
361.033
344.163
315.392
276.217
229.896
179.636
128.061
76.183
23.971
-26.619
-71.043
-103.223
-117.591
-111.496
-87.421
-51.123
-8.69
32.928
70.303
102.413
127.525
147.17
161.878
171.357
177.514
180.218
179.702
177.406
173.883
170.613
169.15
169.975
173.252
178.63
185.385
192.901
200.597
208.015
214.841
220.925
226.284
231.017
235.334
239.491
243.745
248.266
253.117
258.289
263.721
269.359
275.142
281
286.838
292.583
298.183
303.594
308.804
313.804
318.574
323.103
327.383
331.409
335.187
338.728
342.032
345.094
347.911
350.475
352.784
354.839
356.643
358.197
359.506
360.57
361.394
361.981
362.336
362.46
362.355
362.02
361.455
360.667
359.662
358.448
357.034
355.428
353.638
351.675
349.548
347.263
344.829
342.251
339.535
336.689
333.719
330.633
327.437
324.138
320.742
317.255
313.682
310.028
306.296
302.489
298.609
294.657
290.635
286.544
282.383
278.152
273.85
269.475
265.026
260.501
255.896
251.209
246.436
241.576
236.624
231.578
226.435
221.194
215.854
210.414
204.874
199.236
193.499
187.669
181.746
175.737
169.646
163.481
157.248
150.957
144.617
138.24
131.839
125.425
119.012
112.617
106.255
99.941
93.692
87.527
81.462
75.516
69.706
64.05
58.567
53.272
48.184
43.319
38.692
34.317
30.21
26.382
22.844
19.607
16.68
14.068
11.777
9.81
8.169
6.853
5.86
5.186
4.824
4.766
5.004
5.523
6.313
7.356
8.637
10.138
11.838
13.718
15.756
17.929
20.214
22.588
25.026
27.503
29.996
32.478
34.926
37.315
39.62
41.818
43.887
45.805
47.551
49.107
50.454
51.575
52.456
53.083
53.444
53.529
53.329
52.838
52.05
50.963
49.576
47.889
45.904
43.626
41.059
38.21
35.088
31.7
28.057
24.171
20.055
15.721
11.186
6.465
1.574
-3.468
-8.644
-13.934
-19.321
-24.786
-30.311
-35.876
-41.465
-47.058
-52.638
-58.187
-63.687
-69.121
-74.473
-79.728
-84.872
-89.893
-94.779
-99.519
-104.103
-108.521
-112.764
-116.824
-120.691
-124.359
-127.819
-131.067
-134.097
-136.908
-139.497
-141.864
-144.011
-145.94
-147.654
-149.155
-150.447
-151.533
-152.416
-153.102
-153.595
-153.896
-154.008
-153.934
-153.681
-153.253
-152.656
-151.896
-150.976
-149.903
-148.686
-147.333
-145.852
-144.249
-142.526
-140.694
-138.766
-136.765
-134.72
-132.654
-130.585
-128.532
-126.506
-124.51
-122.535
-120.549
-118.513
-116.399
-114.192
-111.885
-109.493
-107.025
-104.476
-101.844
-99.099
-96.204
-93.136
-89.878
-86.428
-82.833
-79.186
-75.611
-72.299
-69.448
-67.146
-65.394
-64.071
-62.953
-61.872
-60.745
-59.446
-57.811
-55.92
-54.072
-52.811
-52.916
-54.848
-58.638
-64.339
-72.04
-81.385
-91.684
-101.78
-109.952
-114.952
-116.111
-112.524
-103.271
-88.047
-66.826
-40.243
-9.83
23.31
57.707
90.566
119.303
142.359
159.881
173.589
183.862
187.657
179.331
154.433
112.59
57.953
-2.379
-63.707
-124.009
-181.371
-233.758
-275.454
-299.156
-301.345
-280.905
-241.067
-190.268
-135.849
-86.189
-50.036
-29.445
-24.27
-30.959
-41.059
-50.218
-56.689
-60.105
-63.611
-68.445
-73.627
-78.239
-80.75
-80.66
-78.829
-76.273
-73.929
-72.297
-71.524
-71.643
-72.604
-74.342
-76.707
-79.414
-82.151
-84.742
-87.11
-89.252
-91.224
-93.038
-94.695
-96.224
-97.677
-99.099
-100.526
-101.978
-103.454
-104.956
-106.482
-108.028
-109.588
-111.147
-112.68
-114.162
-115.565
-116.871
-118.075
-119.17
-120.15
-121.005
-121.723
-122.292
-122.701
-122.938
-122.991
-122.849
-122.504
-121.95
-121.187
-120.216
-119.043
-117.672
-116.104
-114.344
-112.395
-110.26
-107.947
-105.46
-102.808
-99.998
-97.044
-93.957
-90.754
-87.45
-84.059
-80.596
-77.078
-73.519
-69.934
-66.34
-62.75
-59.179
-55.644
-52.158
-48.737
-45.397
-42.152
-39.017
-36.004
-33.128
-30.399
-27.83
-25.431
-23.211
-21.18
-19.346
-17.715
-16.295
-15.091
-14.107
-13.347
-12.813
-12.505
-12.424
-12.568
-12.936
-13.525
-14.331
-15.351
-16.581
-18.015
-19.649
-21.477
-23.493
-25.69
-28.063
-30.602
-33.302
-36.153
-39.149
-42.281
-45.541
-48.921
-52.413
-56.008
-59.698
-63.476
-67.333
-71.261
-75.254
-79.304
-83.403
-87.546
-91.725
-95.935
-100.168
-104.421
-108.687
-112.96
-117.235
-121.508
-125.772
-130.024
-134.258
-138.469
-142.654
-146.807
-150.924
-155.002
-159.037
-163.025
-166.962
-170.847
-174.677
-178.448
-182.16
-185.81
-189.397
-192.919
-196.375
-199.764
-203.085
-206.338
-209.521
-212.634
-215.677
-218.649
-221.552
-224.384
-227.146
-229.839
-232.463
-235.019
-237.508
-239.929
-242.285
-244.575
-246.801
-248.964
-251.064
-253.101
-255.077
-256.992
-258.845
-260.636
-262.362
-264.024
-265.618
-267.142
-268.593
-269.969
-271.266
-272.481
-273.612
-274.654
-275.603
-276.454
-277.204
-277.847
-278.376
-278.788
-279.074
-279.229
-279.247
-279.122
-278.849
-278.421
-277.834
-277.081
-276.156
-275.054
-273.769
-272.296
-270.628
-268.762
-266.693
-264.42
-261.941
-259.256
-256.364
-253.267
-249.964
-246.458
-242.751
-238.843
-234.736
-230.434
-225.941
-221.262
-216.403
-211.372
-206.179
-200.833
-195.347
-189.731
-183.996
-178.151
-172.207
-166.175
-160.065
-153.887
-147.648
-141.357
-135.022
-128.656
-122.273
-115.885
-109.501
-103.13
-96.785
-90.478
-84.224
-78.033
-71.908
-65.856
-59.888
-54.025
-48.3
-42.739
-37.357
-32.168
-27.184
-22.413
-17.856
-13.491
-9.271
-5.145
-1.075
2.95
6.921
10.834
14.682
18.48
22.256
26.019
29.783
33.564
37.375
41.214
45.04
48.747
52.171
55.116
57.381
58.879
59.631
59.737
59.425
58.852
58.086
57.284
56.646
56.206
55.792
54.942
52.944
49.382
44.259
37.648
29.55
20.039
9.516
-1.016
-10.041
-16.225
-18.718
-16.864
-9.799
3.437
23.309
49.594
81.292
117.016
155.577
195.099
232.44
265.077
291.072
309.528
321.691
326.026
319.121
299.096
263.386
213.923
156.068
92.129
25.92
-38.484
-97.767
-144.042
-170.222
-173.922
-154.598
-116.324
-66.923
-12.195
40.764
84.115
115.153
132.436
137.829
137.977
136.28
134.058
131.593
126.442
118.293
109.199
100.924
95.322
93.26
94.252
97.584
102.561
108.371
114.094
119.159
123.304
126.369
128.469
129.765
130.344
130.463
130.469
130.53
130.714
131.036
131.404
131.781
132.18
132.546
132.818
132.959
132.933
132.756
132.474
132.119
131.712
131.278
130.833
130.412
130.055
129.787
129.627
129.585
129.67
129.898
130.287
130.853
131.615
132.586
133.781
135.215
136.901
138.849
141.066
143.557
146.318
149.349
152.647
156.208
160.029
164.102
168.419
172.97
177.742
182.721
187.889
193.224
198.704
204.305
210
215.765
221.572
227.395
233.207
238.98
244.689
250.305
255.803
261.154
266.333
271.313
276.069
280.577
284.813
288.756
292.386
295.685
298.636
301.225
303.438
305.266
306.698
307.728
308.353
308.568
308.375
307.774
306.772
305.375
303.592
301.433
298.911
296.039
292.834
289.311
285.489
281.386
277.022
272.416
267.591
262.568
257.369
252.015
246.53
240.936
235.254
229.506
223.715
217.9
212.082
206.28
200.513
194.8
189.156
183.599
178.141
172.798
167.582
162.502
157.571
152.796
148.184
143.743
139.478
135.392
131.491
127.774
124.245
120.904
117.75
114.783
111.999
109.398
106.976
104.728
102.652
100.742
98.993
97.4
95.956
94.655
93.491
92.457
91.545
90.749
90.061
89.474
88.981
88.573
88.245
87.988
87.795
87.66
87.576
87.535
87.532
87.559
87.611
87.681
87.765
87.855
87.948
88.038
88.12
88.189
88.243
88.277
88.287
88.271
88.226
88.15
88.042
87.9
87.722
87.51
87.261
86.977
86.656
86.301
85.911
85.487
85.031
84.542
84.023
83.473
82.895
82.289
81.656
80.996
80.311
79.6
78.863
78.103
77.317
76.507
75.671
74.809
73.919
73
72.048
71.06
70.031
68.957
67.832
66.65
65.406
64.091
62.7
61.224
59.657
57.992
56.219
54.332
52.323
50.184
47.909
45.49
42.921
40.197
37.312
34.264
31.048
27.663
24.107
20.376
16.472
12.392
8.14
3.716
-0.873
-5.622
-10.518
-15.548
-20.696
-25.945
-31.279
-36.68
-42.13
-47.612
-53.111
-58.614
-64.107
-69.57
-74.986
-80.335
-85.602
-90.775
-95.841
-100.784
-105.59
-110.244
-114.729
-119.031
-123.13
-126.992
-130.582
-133.85
-136.758
-139.283
-141.396
-143.066
-144.266
-144.955
-145.121
-144.785
-143.969
-142.709
-141.053
-139.025
-136.695
-134.185
-131.543
-128.784
-125.869
-122.631
-118.98
-114.915
-110.341
-105.214
-99.692
-93.985
-88.525
-83.953
-80.636
-78.843
-78.904
-80.816
-84.209
-88.452
-92.452
-94.934
-94.926
-91.366
-83.16
-69.753
-50.91
-26.889
1.276
32.425
64.737
95.208
121.652
142.49
156.898
165.885
167.647
158.756
137.273
100.512
50.458
-8.384
-74.451
-143.045
-209.8
-269.622
-312.868
-335.65
-337.727
-321.866
-296.37
-265.33
-232.229
-201.437
-173.971
-153.414
-141.08
-134.178
-131.544
-130.219
-128.419
-127.588
-127.636
-128.622
-130.569
-131.78
-131.184
-128.702
-124.46
-119.267
-114.173
-109.573
-105.551
-102.228
-99.659
-97.819
-96.656
-95.924
-95.188
-94.212
-92.936
-91.332
-89.45
-87.325
-84.946
-82.358
-79.657
-76.913
-74.17
-71.465
-68.806
-66.22
-63.766
-61.484
-59.406
-57.55
-55.916
-54.498
-53.294
-52.295
-51.486
-50.854
-50.39
-50.083
-49.927
-49.912
-50.024
-50.247
-50.56
-50.943
-51.377
-51.845
-52.331
-52.821
-53.303
-53.766
-54.202
-54.598
-54.942
-55.222
-55.423
-55.534
-55.544
-55.442
-55.218
-54.866
-54.379
-53.754
-52.988
-52.078
-51.024
-49.825
-48.481
-46.994
-45.367
-43.605
-41.712
-39.694
-37.56
-35.317
-32.977
-30.55
-28.047
-25.48
-22.862
-20.205
-17.525
-14.833
-12.144
-9.473
-6.832
-4.236
-1.698
0.769
3.153
5.442
7.625
9.693
11.638
13.451
15.128
16.663
18.053
19.295
20.389
21.335
22.135
22.793
23.313
23.703
23.968
24.119
24.165
24.118
23.989
23.792
23.541
23.25
22.936
22.614
22.3
22.011
21.765
21.577
21.465
21.444
21.531
21.74
22.087
22.584
23.244
24.078
25.098
26.311
27.724
29.343
31.17
33.207
35.453
37.905
40.559
43.408
46.444
49.659
53.04
56.575
60.25
64.049
67.956
71.952
76.017
80.131
84.272
88.418
92.546
96.634
100.659
104.597
108.424
112.12
115.66
119.024
122.19
125.138
127.848
130.306
132.495
134.405
136.024
137.348
138.372
139.096
139.522
139.651
139.49
139.043
138.32
137.329
136.08
134.583
132.854
130.909
128.772
126.466
124.015
121.446
118.789
116.072
113.33
110.591
107.879
105.22
102.642
100.177
97.866
95.738
93.814
92.11
90.637
89.4
88.404
87.635
87.058
86.642
86.357
86.187
86.144
86.229
86.436
86.764
87.197
87.747
88.45
89.33
90.399
91.675
93.172
94.939
97.067
99.621
102.641
106.132
110.041
114.321
118.927
123.783
128.8
133.848
138.744
143.345
147.543
151.219
154.266
156.53
157.807
157.945
156.837
154.42
150.692
145.655
139.312
131.728
123.009
113.302
102.806
91.677
80.022
67.967
55.631
43.167
30.77
18.59
6.731
-4.718
-15.698
-26.15
-36.017
-45.283
-53.98
-62.151
-69.856
-77.121
-83.936
-90.304
-96.234
-101.748
-106.881
-111.641
-116.012
-119.987
-123.593
-126.862
-129.843
-132.575
-135.029
-137.194
-139.119
-140.808
-142.23
-143.301
-143.774
-143.422
-142.24
-140.249
-137.479
-134.155
-130.416
-126.521
-123.158
-120.903
-119.988
-120.508
-122.142
-124.185
-126.244
-127.671
-127.189
-123.712
-116.168
-103.608
-86.175
-64.438
-39.041
-11.731
15.856
42.463
66.984
89.445
108.01
118.751
117.113
98.641
64.593
20.46
-28.368
-77.808
-129.003
-183.849
-240.162
-291.308
-327.403
-342.417
-335.344
-311.318
-279.071
-243.74
-210.134
-180.191
-153.397
-131.831
-115.177
-103.309
-96.736
-93.777
-94.623
-99.177
-106.438
-116.071
-126.261
-135.287
-142.63
-147.915
-151.4
-153.688
-154.927
-155.372
-155.613
-156.049
-156.933
-158.418
-160.386
-162.623
-165.015
-167.393
-169.509
-171.207
-172.363
-172.884
-172.761
-172.037
-170.795
-169.135
-167.155
-164.922
-162.454
-159.761
-156.847
-153.705
-150.313
-146.649
-142.684
-138.403
-133.824
-128.97
-123.872
-118.543
-112.967
-107.135
-101.047
-94.705
-88.118
-81.293
-74.23
-66.945
-59.471
-51.841
-44.092
-36.256
-28.355
-20.416
-12.466
-4.536
3.342
11.134
18.81
26.338
33.683
40.809
47.677
54.253
60.508
66.413
71.938
77.057
81.742
85.97
89.719
92.97
95.703
97.902
99.553
100.642
101.163
101.108
100.473
99.257
97.462
95.092
92.155
88.66
84.618
80.044
74.954
69.365
63.3
56.778
49.826
42.468
34.735
26.655
18.262
9.588
0.668
-8.464
-17.77
-27.215
-36.761
-46.373
-56.013
-65.645
-75.231
-84.734
-94.118
-103.349
-112.392
-121.214
-129.782
-138.066
-146.04
-153.677
-160.952
-167.842
-174.326
-180.385
-186.001
-191.16
-195.846
-200.048
-203.755
-206.961
-209.66
-211.85
-213.527
-214.693
-215.351
-215.505
-215.16
-214.326
-213.011
-211.227
-208.989
-206.312
-203.215
-199.719
-195.846
-191.619
-187.065
-182.212
-177.084
-171.71
-166.115
-160.325
-154.368
-148.269
-142.052
-135.74
-129.362
-122.946
-116.521
-110.118
-103.766
-97.496
-91.337
-85.323
-79.482
-73.842
-68.422
-63.244
-58.331
-53.71
-49.411
-45.457
-41.856
-38.611
-35.723
-33.188
-30.995
-29.115
-27.505
-26.12
-24.933
-23.936
-23.139
-22.546
-22.156
-21.963
-21.958
-22.16
-22.589
-23.259
-24.167
-25.312
-26.714
-28.428
-30.551
-33.153
-36.26
-39.849
-43.862
-48.249
-52.956
-57.915
-63.027
-68.153
-73.173
-78.011
-82.638
-87.016
-91.069
-94.659
-97.592
-99.722
-100.959
-101.261
-100.615
-98.989
-96.371
-92.807
-88.405
-83.32
-77.66
-71.46
-64.692
-57.346
-49.481
-41.231
-32.778
-24.264
-15.809
-7.532
0.437
7.92
14.778
20.949
26.438
31.285
35.475
38.915
41.46
42.998
43.484
42.932
41.384
38.858
35.389
31.056
25.99
20.376
14.361
8.03
1.416
-5.462
-12.542
-19.71
-26.821
-33.768
-40.479
-46.9
-52.98
-58.643
-63.832
-68.527
-72.76
-76.602
-80.1
-83.251
-86.03
-88.404
-90.354
-91.899
-93.074
-93.886
-94.347
-94.482
-94.316
-93.932
-93.443
-92.869
-92.157
-91.17
-89.677
-87.533
-84.67
-80.94
-76.24
-70.68
-64.506
-58.232
-52.602
-48.095
-45.06
-43.902
-44.66
-46.956
-50.105
-52.888
-53.879
-52.015
-46.156
-35.047
-18.034
5.027
33.618
66.393
101.969
139.031
175.496
208.785
236.551
256.489
267.048
267.424
256.296
233.294
200.155
159.014
112.458
61.608
5.012
-56.21
-117.97
-172.371
-209.039
-223.508
-215.764
-190.255
-154.768
-112.447
-66.015
-19.339
24.086
57.953
78.087
85.604
84.806
81.283
78.951
78.416
77.856
76.206
73.978
72.351
72.95
76.377
81.938
88.777
96.041
102.903
108.934
113.938
117.791
120.628
122.718
124.298
125.639
127.027
128.616
130.467
132.606
134.971
137.5
140.159
142.892
145.65
148.401
151.121
153.788
156.388
158.907
161.34
163.684
165.945
168.135
170.269
172.363
174.444
176.526
178.621
180.738
182.881
185.055
187.272
189.542
191.879
194.294
196.795
199.388
202.08
204.875
207.772
210.767
213.853
217.024
220.276
223.605
227.006
230.472
233.994
237.563
241.17
244.801
248.442
252.077
255.689
259.261
262.774
266.212
269.556
272.787
275.888
278.84
281.625
284.224
286.619
288.792
290.724
292.397
293.796
294.902
295.701
296.177
296.317
296.106
295.533
294.588
293.26
291.54
289.422
286.9
283.971
280.63
276.879
272.717
268.148
263.177
257.81
252.056
245.925
239.427
232.577
225.387
217.875
210.056
201.95
193.575
184.952
176.103
167.051
157.819
148.431
138.912
129.287
119.583
109.825
100.039
90.251
80.487
70.773
61.135
51.596
42.181
32.913
23.815
14.907
6.21
-2.257
-10.479
-18.438
-26.121
-33.515
-40.609
-47.393
-53.858
-60
-65.811
-71.29
-76.435
-81.246
-85.725
-89.874
-93.698
-97.204
-100.398
-103.289
-105.886
-108.198
-110.239
-112.018
-113.549
-114.844
-115.918
-116.784
-117.455
-117.946
-118.27
-118.441
-118.471
-118.372
-118.156
-117.834
-117.415
-116.91
-116.325
-115.67
-114.95
-114.171
-113.337
-112.452
-111.516
-110.531
-109.495
-108.407
-107.264
-106.061
-104.794
-103.458
-102.047
-100.554
-98.971
-97.292
-95.508
-93.61
-91.59
-89.438
-87.145
-84.704
-82.105
-79.341
-76.406
-73.293
-69.998
-66.518
-62.848
-58.985
-54.928
-50.677
-46.231
-41.592
-36.763
-31.749
-26.558
-21.199
-15.682
-10.019
-4.225
1.687
7.699
13.796
19.96
26.173
32.415
38.665
44.902
51.102
57.243
63.298
69.243
75.053
80.702
86.166
91.422
96.451
101.233
105.748
109.979
113.908
117.519
120.798
123.73
126.301
128.497
130.309
131.732
132.767
133.414
133.677
133.559
133.066
132.209
130.995
129.428
127.51
125.236
122.606
119.637
116.345
112.753
108.899
104.815
100.535
96.109
91.58
86.972
82.314
77.61
72.871
68.133
63.435
58.833
54.39
50.145
46.136
42.393
38.888
35.577
32.404
29.262
26.077
22.795
19.326
15.693
12.009
8.399
5.069
2.176
-0.268
-2.16
-3.317
-3.807
-3.834
-3.788
-4.345
-5.905
-8.542
-12.506
-18.061
-25.062
-33.072
-41.076
-47.487
-51.124
-51.176
-46.584
-36.383
-20.085
2.456
30.399
62.052
96.094
130.507
162.619
190.528
211.908
225.714
231.862
227.682
211.126
180.69
135.977
81.651
22.079
-40.404
-103.443
-166.207
-225.352
-273.342
-304.441
-316.011
-308.773
-289.132
-262.637
-232.425
-202.741
-174.561
-149.544
-130.926
-117.796
-110.186
-107.636
-107.381
-109.526
-113.675
-118.44
-123.856
-128.819
-131.999
-133.238
-132.534
-130.259
-127.325
-124.502
-122.101
-120.311
-119.319
-119.085
-119.513
-120.501
-121.71
-122.763
-123.505
-123.853
-123.768
-123.318
-122.527
-121.393
-119.988
-118.394
-116.656
-114.83
-112.943
-111.008
-109.068
-107.16
-105.306
-103.528
-101.833
-100.212
-98.665
-97.184
-95.755
-94.375
-93.041
-91.749
-90.503
-89.3
-88.135
-87.002
-85.892
-84.795
-83.705
-82.613
-81.513
-80.404
-79.282
-78.149
-77.007
-75.853
-74.686
-73.499
-72.288
-71.048
-69.774
-68.463
-67.107
-65.706
-64.256
-62.757
-61.207
-59.607
-57.955
-56.249
-54.489
-52.673
-50.802
-48.875
-46.892
-44.854
-42.763
-40.621
-38.433
-36.2
-33.929
-31.623
-29.288
-26.93
-24.557
-22.174
-19.791
-17.415
-15.055
-12.72
-10.419
-8.162
-5.959
-3.819
-1.752
0.235
2.132
3.93
5.624
7.204
8.666
10.002
11.207
12.276
13.206
13.993
14.636
15.132
15.481
15.685
15.746
15.667
15.452
15.107
14.637
14.051
13.357
12.563
11.68
10.718
9.689
8.604
7.475
6.314
5.132
3.942
2.756
1.584
0.437
-0.674
-1.74
-2.752
-3.703
-4.585
-5.392
-6.12
-6.766
-7.327
-7.803
-8.195
-8.505
-8.738
-8.899
-8.996
-9.036
-9.031
-8.992
-8.932
-8.864
-8.805
-8.771
-8.777
-8.841
-8.981
-9.214
-9.558
-10.03
-10.648
-11.427
-12.383
-13.531
-14.885
-16.458
-18.26
-20.302
-22.593
-25.14
-27.948
-31.022
-34.362
-37.969
-41.841
-45.972
-50.357
-54.986
-59.85
-64.935
-70.227
-75.71
-81.365
-87.174
-93.116
-99.169
-105.311
-111.518
-117.767
-124.034
-130.295
-136.527
-142.707
-148.813
-154.824
-160.72
-166.481
-172.089
-177.527
-182.779
-187.832
-192.671
-197.285
-201.665
-205.804
-209.694
-213.333
-216.72
-219.855
-222.743
-225.389
-227.799
-229.984
-231.953
-233.719
-235.297
-236.7
-237.945
-239.047
-240.026
-240.898
-241.681
-242.394
-243.055
-243.679
-244.284
-244.884
-245.493
-246.122
-246.783
-247.485
-248.239
-249.052
-249.932
-250.885
-251.915
-253.025
-254.212
-255.474
-256.8
-258.178
-259.592
-261.026
-262.463
-263.883
-265.268
-266.601
-267.865
-269.047
-270.129
-271.092
-271.915
-272.576
-273.059
-273.348
-273.428
-273.282
-272.896
-272.253
-271.339
-270.137
-268.626
-266.775
-264.547
-261.891
-258.766
-255.145
-250.996
-246.287
-240.985
-235.045
-228.449
-221.217
-213.365
-204.939
-195.992
-186.553
-176.706
-166.574
-156.199
-145.6
-134.73
-123.4
-111.51
-99.048
-85.904
-72.047
-57.671
-43.038
-28.659
-15.271
-3.327
6.846
14.846
20.608
24.517
27.278
30.105
34.473
41.539
52.469
68.574
90.713
119.13
153.418
192.42
234.569
278.196
321.09
360.479
393.622
418.078
431.975
433.927
423.413
401.165
368.834
328.943
282.974
230.164
170.721
107.384
46.366
-1.468
-27.314
-28.951
-8.535
26.166
66.599
109.76
152.712
192.643
228.272
254.733
269.721
275.67
274.488
269.87
264.251
256.566
246.767
235.475
223.69
213.332
205.298
199.425
195.218
191.967
189.108
186.067
182.345
177.697
171.997
165.344
157.99
150.145
142.055
134.034
126.284
118.929
112.088
105.794
100.038
94.787
89.928
85.336
80.948
76.719
72.641
68.724
64.966
61.377
57.994
54.856
51.992
49.418
47.113
45.049
43.218
41.634
40.327
39.325
38.641
38.286
38.274
38.622
39.341
40.425
41.85
43.595
45.64
47.972
50.583
53.463
56.598
59.97
63.563
67.359
71.34
75.488
79.78
84.19
88.698
93.282
97.929
102.623
107.347
112.086
116.825
121.551
126.254
130.922
135.542
140.104
144.598
149.019
153.359
157.615
161.781
165.857
169.841
173.734
177.536
181.249
184.876
188.42
191.884
195.273
198.591
201.843
205.035
208.173
211.262
214.311
217.325
220.313
223.28
226.233
229.178
232.122
235.07
238.026
240.994
243.98
246.986
250.016
253.072
256.157
259.271
262.416
265.591
268.797
272.031
275.292
278.577
281.885
285.213
288.557
291.914
295.281
298.653
302.027
305.398
308.761
312.113
315.448
318.76
322.046
325.299
328.516
331.69
334.817
337.892
340.909
343.863
346.75
349.563
352.299
354.952
357.517
359.989
362.364
364.637
366.803
368.858
370.797
372.617
374.313
375.88
377.316
378.615
379.775
380.793
381.664
382.387
382.959
383.378
383.642
383.751
383.703
383.498
383.137
382.62
381.95
381.129
380.159
379.045
377.791
376.402
374.885
373.247
371.495
369.638
367.683
365.642
363.523
361.338
359.097
356.813
354.496
352.159
349.815
347.474
345.15
342.853
340.595
338.386
336.238
334.161
332.162
330.252
328.436
326.722
325.116
323.621
322.242
320.979
319.832
318.8
317.879
317.065
316.351
315.728
315.186
314.713
314.296
313.92
313.569
313.225
312.868
312.478
312.034
311.514
310.895
310.155
309.269
308.217
306.973
305.516
303.821
301.867
299.632
297.097
294.243
291.05
287.502
283.585
279.287
274.596
269.503
264.003
258.092
251.774
245.055
237.944
230.454
222.597
214.391
205.854
197.008
187.87
178.459
168.796
158.905
148.816
138.561
128.172
117.68
107.115
96.505
85.886
75.287
64.738
54.271
43.922
33.735
23.774
14.097
4.758
-4.192
-12.714
-20.783
-28.374
-35.474
-42.08
-48.177
-53.758
-58.826
-63.379
-67.452
-71.095
-74.349
-77.302
-80.061
-82.654
-85.077
-87.25
-88.957
-90.005
-90.256
-89.581
-87.934
-85.468
-82.456
-79.352
-76.824
-75.482
-75.778
-77.896
-81.713
-86.725
-92.158
-97.033
-100.052
-99.827
-95.079
-84.975
-69.265
-48.352
-23.119
5.258
34.991
63.627
88.325
106.362
115.434
113.799
100.158
73.496
34.17
-15.652
-73.181
-135.749
-202.324
-272.85
-345.201
-414.301
-471.848
-509.993
-525.537
-520.442
-501.825
-477.386
-451.896
-427.534
-403.952
-380.948
-360.053
-343.413
-332.945
-329.269
-331.623
-338.473
-347.986
-358.553
-368.569
-376.585
-381.826
-383.964
-383.08
-379.747
-374.625
-368.401
-361.95
-355.938
-350.679
-346.328
-342.793
-339.794
-337.09
-334.411
-331.427
-327.973
-323.997
-319.481
-314.507
-309.167
-303.523
-297.662
-291.671
-285.592
-279.466
-273.327
-267.203
-261.145
-255.2
-249.398
-243.763
-238.307
-233.037
-227.959
-223.073
-218.365
-213.827
-209.454
-205.241
-201.189
-197.292
-193.536
-189.906
-186.381
-182.943
-179.576
-176.26
-172.976
-169.708
-166.442
-163.165
-159.868
-156.538
-153.159
-149.719
-146.203
-142.599
-138.896
-135.084
-131.154
-127.099
-122.916
-118.604
-114.162
-109.593
-104.899
-100.086
-95.16
-90.13
-85.007
-79.804
-74.535
-69.216
-63.867
-58.506
-53.157
-47.842
-42.585
-37.412
-32.35
-27.425
-22.666
-18.1
-13.755
-9.661
-5.845
-2.337
0.837
3.65
6.075
8.088
9.664
10.782
11.422
11.564
11.193
10.295
8.857
6.868
4.323
1.216
-2.456
-6.692
-11.49
-16.844
-22.747
-29.188
-36.152
-43.626
-51.59
-60.025
-68.907
-78.213
-87.916
-97.988
-108.399
-119.118
-130.112
-141.347
-152.789
-164.403
-176.151
-187.998
-199.907
-211.842
-223.767
-235.645
-247.443
-259.125
-270.659
-282.014
-293.158
-304.062
-314.701
-325.048
-335.08
-344.776
-354.117
-363.086
-371.667
-379.849
-387.62
-394.974
-401.903
-408.403
-414.473
-420.113
-425.325
-430.112
-434.48
-438.436
-441.989
-445.15
-447.93
-450.341
-452.399
-454.117
-455.512
-456.599
-457.395
-457.916
-458.179
-458.201
-457.998
-457.585
-456.979
-456.194
-455.244
-454.142
-452.901
-451.533
-450.048
-448.455
-446.763
-444.98
-443.112
-441.165
-439.145
-437.054
-434.897
-432.675
-430.391
-428.046
-425.639
-423.171
-420.641
-418.046
-415.384
-412.653
-409.849
-406.971
-404.015
-400.978
-397.858
-394.654
-391.365
-387.99
-384.529
-380.983
-377.354
-373.644
-369.856
-365.992
-362.059
-358.06
-354.003
-349.894
-345.739
-341.547
-337.326
-333.086
-328.834
-324.581
-320.335
-316.105
-311.9
-307.732
-303.609
-299.544
-295.544
-291.621
-287.783
-284.042
-280.407
-276.886
-273.483
-270.201
-267.039
-263.999
-261.082
-258.286
-255.609
-253.048
-250.602
-248.272
-246.064
-243.977
-242.007
-240.149
-238.395
-236.74
-235.177
-233.703
-232.311
-230.993
-229.738
-228.541
-227.391
-226.277
-225.18
-224.063
-222.889
-221.627
-220.248
-218.733
-217.081
-215.283
-213.338
-211.253
-209.015
-206.642
-204.172
-201.642
-199.109
-196.602
-194.116
-191.704
-189.467
-187.439
-185.618
-183.87
-181.889
-179.535
-176.83
-173.787
-170.433
-166.765
-162.793
-158.904
-155.842
-154.115
-153.858
-154.84
-156.582
-158.807
-161.183
-162.758
-162.102
-157.839
-148.902
-135.14
-117.027
-94.671
-69.16
-42.479
-16.251
6.855
25.217
38.345
43.11
37.359
19.578
-11.729
-53.367
-103.276
-160.55
-221.283
-281.892
-335.052
-371.798
-389.274
-389.335
-377.244
-359.119
-336.863
-308.391
-273.475
-235.056
-197.679
-168.027
-148.791
-137.438
-131.305
-126.712
-121.785
-118
-115.78
-114.9
-114.755
-113.445
-109.906
-104.094
-96.215
-86.896
-76.813
-66.496
-56.345
-46.685
-37.665
-29.265
-21.43
-14.034
-6.879
0.256
7.513
14.953
22.566
30.279
38.032
45.772
53.436
60.939
68.215
75.215
81.902
88.273
94.329
100.065
105.482
110.587
115.386
119.899
124.154
128.169
131.957
135.535
138.914
142.111
145.149
148.048
150.832
153.521
156.137
158.699
161.229
163.747
166.271
168.816
171.392
174.011
176.686
179.43
182.254
185.169
188.181
191.296
194.517
197.848
201.285
204.826
208.463
212.19
215.996
219.874
223.812
227.799
231.823
235.869
239.926
243.979
248.014
252.014
255.966
259.853
263.66
267.373
270.977
274.458
277.803
280.999
284.036
286.901
289.587
292.085
294.389
296.491
298.39
300.082
301.567
302.846
303.921
304.796
305.477
305.971
306.285
306.429
306.411
306.242
305.933
305.495
304.938
304.275
303.516
302.673
301.758
300.78
299.752
298.682
297.58
296.455
295.316
294.169
293.021
291.878
290.744
289.623
288.517
287.43
286.36
285.307
284.271
283.247
282.234
281.225
280.216
279.201
278.171
277.122
276.044
274.93
273.773
272.563
271.295
269.96
268.552
267.064
265.491
263.826
262.067
260.21
258.253
256.193
254.03
251.766
249.402
246.94
244.384
241.738
239.01
236.205
233.332
230.399
227.418
224.4
221.358
218.305
215.256
212.227
209.235
206.297
203.429
200.651
197.98
195.434
193.033
190.793
188.733
186.87
185.221
183.799
182.622
181.7
181.048
180.675
180.591
180.805
181.323
182.151
183.293
184.751
186.526
188.619
191.026
193.744
196.765
200.083
203.687
207.563
211.698
216.073
220.671
225.47
230.449
235.582
240.844
246.209
251.647
257.131
262.629
268.111
273.546
278.903
284.151
289.26
294.198
298.936
303.445
307.697
311.665
315.325
318.65
321.618
324.208
326.399
328.172
329.512
330.403
330.835
330.803
330.305
329.345
327.928
326.063
323.76
321.035
317.904
314.383
310.484
306.223
301.62
296.699
291.49
286.023
280.324
274.422
268.347
262.128
255.798
249.388
242.925
236.442
229.982
223.592
217.341
211.289
205.495
200.005
194.859
190.092
185.739
181.835
178.405
175.47
173.035
171.091
169.621
168.59
167.969
167.7
167.677
167.857
168.258
168.985
170.253
172.276
175.164
178.97
183.74
189.295
195.311
201.305
206.497
210.178
211.869
211.364
208.818
204.851
200.321
196.323
194.438
196.229
203.113
216.115
235.398
260.415
290.245
323.481
357.96
391.157
420.115
441.833
454.181
455.642
445.464
424.112
392.744
352.598
304.155
247.549
184.282
118.758
59.3
14.51
-10.882
-17.339
-10.675
2.646
18.862
36.818
57.298
80.142
103.625
125.285
142.421
153.487
158.114
156.649
150.398
140.911
129.59
117.908
106.953
97.498
90.127
84.999
81.848
80.167
79.297
78.519
77.404
75.709
73.295
70.186
66.454
62.238
57.792
53.414
49.271
45.427
41.887
38.594
35.527
32.679
30.002
27.425
24.889
22.352
19.789
17.209
14.621
12.025
9.427
6.832
4.259
1.733
-0.716
-3.067
-5.31
-7.435
-9.434
-11.292
-12.994
-14.524
-15.867
-17.011
-17.945
-18.656
-19.135
-19.376
-19.375
-19.136
-18.662
-17.961
-17.037
-15.897
-14.546
-12.996
-11.257
-9.343
-7.267
-5.048
-2.705
-0.26
2.264
4.84
7.444
10.05
12.632
15.164
17.619
19.973
22.199
24.273
26.171
27.869
29.346
30.581
31.554
32.249
32.65
32.747
32.527
31.985
31.115
29.915
28.386
26.53
24.354
21.866
19.076
15.999
12.65
9.048
5.214
1.17
-3.058
-7.443
-11.959
-16.577
-21.266
-25.996
-30.738
-35.461
-40.135
-44.731
-49.219
-53.571
-57.763
-61.768
-65.565
-69.132
-72.453
-75.51
-78.292
-80.788
-82.991
-84.898
-86.507
-87.82
-88.842
-89.581
-90.048
-90.257
-90.223
-89.965
-89.506
-88.868
-88.076
-87.157
-86.14
-85.053
-83.927
-82.792
-81.679
-80.619
-79.643
-78.779
-78.058
-77.507
-77.153
-77.019
-77.129
-77.502
-78.155
-79.105
-80.362
-81.934
-83.829
-86.048
-88.591
-91.455
-94.631
-98.11
-101.878
-105.919
-110.213
-114.737
-119.467
-124.375
-129.432
-134.606
-139.865
-145.175
-150.501
-155.808
-161.059
-166.219
-171.252
-176.122
-180.795
-185.236
-189.413
-193.295
-196.854
-200.063
-202.897
-205.335
-207.357
-208.949
-210.096
-210.788
-211.018
-210.781
-210.077
-208.907
-207.276
-205.195
-202.676
-199.735
-196.392
-192.667
-188.585
-184.172
-179.457
-174.467
-169.233
-163.788
-158.163
-152.393
-146.511
-140.552
-134.55
-128.542
-122.561
-116.64
-110.811
-105.103
-99.546
-94.166
-88.987
-84.03
-79.318
-74.869
-70.698
-66.818
-63.238
-59.964
-57
-54.348
-52.005
-49.963
-48.214
-46.747
-45.552
-44.616
-43.929
-43.474
-43.236
-43.197
-43.349
-43.689
-44.218
-44.929
-45.8
-46.801
-47.907
-49.095
-50.334
-51.585
-52.801
-53.939
-54.973
-55.895
-56.696
-57.348
-57.809
-58.005
-57.855
-57.312
-56.368
-55.049
-53.392
-51.446
-49.273
-46.998
-44.799
-42.77
-40.881
-38.988
-36.861
-34.35
-31.449
-28.138
-24.327
-20.132
-15.846
-11.965
-9.261
-8.291
-9.209
-12.158
-17.287
-24.301
-32.602
-41.186
-48.457
-53.083
-54.136
-50.53
-41.173
-25.406
-3.104
25.029
57.619
92.723
128.305
162.719
193.48
219.165
238.878
249.306
248.132
233.254
203.265
161.803
113.047
59.222
1.416
-60.409
-124.488
-183.904
-228.694
-253.07
-254.894
-237.437
-209.32
-174.971
-138.667
-104.903
-74.697
-52.05
-38.703
-32.27
-31.613
-33.694
-36.593
-41.543
-48.325
-56.498
-65.414
-72.997
-78.169
-80.895
-81.355
-80.285
-78.523
-76.635
-74.995
-73.881
-73.364
-73.389
-73.897
-74.735
-75.65
-76.353
-76.666
-76.512
-75.895
-74.877
-73.485
-71.728
-69.645
-67.315
-64.81
-62.193
-59.511
-56.77
-53.973
-51.138
-48.275
-45.397
-42.511
-39.607
-36.672
-33.71
-30.731
-27.752
-24.793
-21.861
-18.959
-16.096
-13.276
-10.505
-7.789
-5.13
-2.532
0.003
2.466
4.85
7.144
9.342
11.441
13.439
15.338
17.14
18.846
20.46
21.987
23.432
24.798
26.088
27.306
28.454
29.536
30.559
31.528
32.449
33.328
34.173
34.991
35.789
36.572
37.346
38.118
38.889
39.664
40.444
41.23
42.024
42.825
43.631
44.441
45.249
46.052
46.844
47.617
48.364
49.076
49.742
50.352
50.896
51.361
51.738
52.014
52.178
52.217
52.119
51.873
51.466
50.885
50.118
49.153
47.978
46.584
44.959
43.094
40.981
38.613
35.982
33.083
29.913
26.469
22.748
18.75
14.476
9.929
5.112
0.029
-5.313
-10.907
-16.745
-22.818
-29.116
-35.628
-42.342
-49.247
-56.328
-63.573
-70.968
-78.496
-86.143
-93.893
-101.728
-109.632
-117.588
-125.577
-133.583
-141.586
-149.569
-157.514
-165.404
-173.219
-180.943
-188.559
-196.05
-203.399
-210.592
-217.613
-224.446
-231.079
-237.498
-243.688
-249.639
-255.337
-260.771
-265.932
-270.808
-275.39
-279.671
-283.642
-287.296
-290.629
-293.634
-296.309
-298.651
-300.66
-302.335
-303.678
-304.693
-305.386
-305.762
-305.829
-305.596
-305.073
-304.271
-303.204
-301.884
-300.325
-298.545
-296.559
-294.387
-292.048
-289.562
-286.952
-284.239
-281.449
-278.605
-275.731
-272.855
-270
-267.194
-264.463
-261.833
-259.331
-256.981
-254.81
-252.842
-251.102
-249.61
-248.388
-247.454
-246.825
-246.516
-246.542
-246.915
-247.643
-248.736
-250.201
-252.044
-254.269
-256.876
-259.861
-263.219
-266.941
-271.013
-275.42
-280.142
-285.157
-290.445
-295.983
-301.75
-307.724
-313.884
-320.207
-326.671
-333.252
-339.929
-346.677
-353.472
-360.296
-367.127
-373.946
-380.736
-387.474
-394.132
-400.682
-407.091
-413.319
-419.323
-425.046
-430.432
-435.424
-439.971
-444.014
-447.489
-450.337
-452.515
-454.005
-454.82
-454.995
-454.55
-453.528
-452.01
-450.019
-447.571
-444.637
-441.06
-436.711
-431.564
-425.514
-418.501
-410.761
-402.528
-394.228
-386.832
-381.025
-377.208
-376.189
-377.834
-381.385
-387.073
-393.903
-401.177
-408.903
-413.798
-412.734
-402.217
-378.928
-344.876
-303.357
-259.017
-216.143
-174.831
-135.2
-97.023
-62.24
-36.699
-25.506
-33.312
-60.041
-99.501
-145.645
-192.187
-237.081
-283.896
-333.056
-382.522
-425.606
-450.461
-450.619
-424.919
-377.941
-321.055
-262.831
-208.094
-159.103
-114.004
-72.507
-36.865
-9.295
8.106
14.995
12.819
3.488
-11.169
-29.366
-48.907
-67.662
-84.234
-97.856
-108.35
-115.915
-120.708
-123.142
-124.203
-124.979
-126.158
-127.98
-130.27
-132.652
-134.829
-136.495
-137.196
-136.441
-133.94
-129.672
-123.859
-116.882
-109.107
-100.762
-92.007
-82.982
-73.782
-64.486
-55.164
-45.837
-36.539
-27.366
-18.446
-9.905
-1.844
5.725
12.854
19.638
26.209
32.662
39.056
45.434
51.813
58.195
64.572
70.917
77.196
83.404
89.564
95.7
101.837
107.973
114.076
120.105
126.005
131.724
137.223
142.466
147.432
152.113
156.511
160.64
164.523
168.177
171.608
174.826
177.835
180.646
183.275
185.743
188.071
190.284
192.409
194.474
196.505
198.528
200.564
202.634
204.754
206.943
209.219
211.599
214.102
216.746
219.547
222.524
225.69
229.06
232.647
236.46
240.506
244.793
249.322
254.096
259.115
264.377
269.878
275.613
281.575
287.755
294.143
300.728
307.497
314.435
321.526
328.751
336.093
343.531
351.046
358.616
366.221
373.839
381.45
389.031
396.563
404.025
411.394
418.652
425.778
432.753
439.559
446.179
452.596
458.797
464.767
470.495
475.968
481.178
486.116
490.774
495.146
499.228
503.018
506.512
509.711
512.617
515.231
517.557
519.601
521.369
522.868
524.105
525.091
525.834
526.346
526.637
526.719
526.603
526.301
525.826
525.191
524.406
523.486
522.442
521.286
520.033
518.693
517.279
515.803
514.276
512.71
511.115
509.5
507.875
506.249
504.628
503.019
501.428
499.86
498.317
496.802
495.316
493.858
492.428
491.021
489.636
488.266
486.907
485.552
484.196
482.83
481.448
480.04
478.597
477.11
475.567
473.957
472.267
470.483
468.592
466.579
464.43
462.13
459.666
457.022
454.185
451.143
447.881
444.387
440.65
436.658
432.402
427.872
423.063
417.969
412.587
406.916
400.957
394.714
388.188
381.386
374.313
366.973
359.376
351.531
343.452
335.153
326.653
317.974
309.143
300.189
291.139
282.021
272.866
263.698
254.541
245.421
236.359
227.379
218.506
209.762
201.167
192.743
184.507
176.478
168.671
161.097
153.77
146.708
139.925
133.448
127.305
121.531
116.169
111.252
106.813
102.891
99.524
96.759
94.627
93.129
92.244
91.938
92.158
92.868
93.996
95.407
97.05
98.924
101.075
103.689
106.892
110.662
115.063
120.192
125.837
131.677
137.184
141.424
143.773
143.957
141.56
136.376
128.788
119.439
109.56
101.107
95.55
94.035
98.009
108.406
125.433
149.033
178.295
211.287
246.387
281.287
312.333
337.229
354.568
363.713
366.044
360.93
345.845
318.742
277.268
222.109
156.475
84.106
11.204
-55.75
-109.715
-143.779
-155.863
-147.653
-124.587
-94.423
-62.119
-30.154
1.247
33.196
65.093
95.018
120.397
138.939
150.232
155.018
154.411
149.989
142.978
134.613
126.654
120.2
115.648
113.151
112.388
112.844
114.238
116.039
117.407
117.968
117.586
116.209
114.098
111.471
108.429
105.246
102.288
99.757
97.819
96.586
96.023
96.137
96.921
98.286
100.116
102.271
104.644
107.183
109.872
112.704
115.677
118.786
122.031
125.428
128.965
132.606
136.318
140.06
143.814
147.586
151.391
155.262
159.225
163.3
167.496
171.811
176.235
180.75
185.329
189.935
194.54
199.121
203.66
208.141
212.544
216.846
221.019
225.037
228.868
232.482
235.847
238.936
241.723
244.186
246.308
248.075
249.473
250.492
251.119
251.344
251.156
250.548
249.511
248.039
246.127
243.775
240.981
237.751
234.089
230.002
225.5
220.592
215.292
209.613
203.57
197.181
190.463
183.434
176.117
168.533
160.704
152.656
144.414
136.004
127.452
118.785
110.031
101.215
92.364
83.504
74.661
65.859
57.124
48.48
39.949
31.556
23.321
15.265
7.406
-0.238
-7.653
-14.825
-21.742
-28.394
-34.774
-40.876
-46.694
-52.228
-57.477
-62.442
-67.127
-71.539
-75.686
-79.578
-83.229
-86.652
-89.865
-92.887
-95.736
-98.436
-101.008
-103.477
-105.866
-108.201
-110.509
-112.815
-115.145
-117.526
-119.984
-122.546
-125.236
-128.079
-131.099
-134.317
-137.755
-141.43
-145.36
-149.561
-154.046
-158.825
-163.909
-169.303
-175.012
-181.037
-187.376
-194.023
-200.969
-208.202
-215.705
-223.457
-231.434
-239.613
-247.963
-256.456
-265.061
-273.743
-282.47
-291.208
-299.923
-308.577
-317.132
-325.545
-333.773
-341.775
-349.508
-356.928
-363.993
-370.659
-376.888
-382.648
-387.907
-392.635
-396.797
-400.355
-403.281
-405.559
-407.179
-408.137
-408.439
-408.09
-407.119
-405.574
-403.503
-400.957
-397.97
-394.555
-390.732
-386.529
-381.971
-377.097
-371.919
-366.425
-360.617
-354.507
-348.101
-341.415
-334.423
-327.064
-319.294
-311.091
-302.468
-293.494
-284.231
-274.74
-265.114
-255.456
-245.911
-236.674
-227.905
-219.723
-212.254
-205.607
-199.929
-195.424
-192.246
-190.507
-190.28
-191.57
-194.38
-198.718
-204.531
-211.723
-220.147
-229.594
-239.896
-250.932
-262.576
-274.709
-287.179
-299.785
-312.365
-324.804
-337.002
-348.887
-360.385
-371.404
-381.888
-391.831
-401.257
-410.233
-418.803
-426.971
-434.738
-442.106
-449.09
-455.73
-462.075
-468.146
-473.975
-479.603
-485.025
-490.276
-495.434
-500.485
-505.356
-509.912
-513.859
-516.954
-519.175
-520.496
-520.892
-520.536
-519.516
-518.083
-516.947
-516.68
-517.523
-519.561
-522.435
-525.453
-528.24
-530.135
-529.767
-525.871
-517.315
-503.295
-484.052
-460.315
-432.471
-401.478
-369.325
-338.302
-311.068
-290.218
-277.344
-273.674
-280.837
-299.093
-326.803
-361.977
-402.421
-447.36
-497.314
-550.372
-601.152
-641.926
-666.001
-670.968
-658.686
-633.345
-598.181
-555.686
-509.487
-464.717
-427.446
-401.632
-386.798
-378.615
-372.097
-364.045
-354.14
-344.645
-337.076
-331.602
-327.419
-322.529
-315.95
-307.942
-299.024
-290.208
-282.395
-275.802
-270.542
-266.77
-264.347
-263.081
-262.805
-263.128
-263.662
-264.231
-264.698
-264.983
-265.096
-264.986
-264.566
-263.789
-262.619
-261.036
-259.058
-256.713
-254.056
-251.175
-248.137
-244.999
-241.801
-238.545
-235.227
-231.831
-228.326
-224.692
-220.934
-217.07
-213.122
-209.107
-205.017
-200.831
-196.515
-192.021
-187.308
-182.338
-177.083
-171.531
-165.681
-159.543
-153.138
-146.49
-139.617
-132.531
-125.244
-117.765
-110.109
-102.295
-94.345
-86.286
-78.147
-69.96
-61.756
-53.564
-45.411
-37.32
-29.311
-21.403
-13.612
-5.958
1.543
8.874
16.016
22.953
29.67
36.151
42.383
48.356
54.063
59.497
64.654
69.532
74.129
78.445
82.482
86.242
89.729
92.945
95.897
98.591
101.032
103.229
105.19
106.924
108.44
109.75
110.862
111.786
112.531
113.107
113.522
113.785
113.902
113.882
113.731
113.456
113.064
112.561
111.95
111.237
110.423
109.512
108.504
107.399
106.198
104.9
103.503
102.007
100.409
98.709
96.903
94.991
92.969
90.836
88.59
86.228
83.748
81.15
78.431
75.592
72.632
69.551
66.351
63.033
59.599
56.051
52.394
48.63
44.764
40.802
36.748
32.609
28.394
24.109
19.764
15.368
10.931
6.464
1.978
-2.516
-7.005
-11.478
-15.922
-20.324
-24.671
-28.948
-33.142
-37.239
-41.224
-45.084
-48.803
-52.367
-55.762
-58.973
-61.986
-64.788
-67.364
-69.699
-71.78
-73.593
-75.123
-76.358
-77.281
-77.881
-78.144
-78.056
-77.605
-76.781
-75.571
-73.964
-71.95
-69.52
-66.663
-63.373
-59.641
-55.46
-50.824
-45.73
-40.173
-34.153
-27.667
-20.716
-13.301
-5.426
2.904
11.683
20.905
30.56
40.637
51.122
62.002
73.258
84.872
96.822
109.08
121.618
134.409
147.419
160.618
173.972
187.445
201.003
214.611
228.234
241.835
255.375
268.809
282.093
295.185
308.041
320.618
332.871
344.754
356.227
367.257
377.807
387.839
397.307
406.158
414.348
421.847
428.629
434.673
439.968
444.509
448.309
451.405
453.827
455.604
456.752
457.273
457.186
456.526
455.333
453.66
451.539
448.97
445.961
442.525
438.634
434.246
429.278
423.602
417.137
409.825
401.611
392.47
382.344
371.164
358.902
345.514
330.976
315.388
298.898
281.719
264.226
246.761
229.661
213.412
198.416
184.838
172.681
161.708
151.583
142.249
133.781
126.104
119.179
113.222
108.803
106.935
108.578
114.155
123.793
137.773
156.567
180.376
208.79
240.772
275.213
311.415
348.777
385.474
418.44
445.073
463.558
474.3
478.987
476.742
465.028
440.336
399.162
341.815
271.301
191.158
106.575
23.598
-51.18
-109.068
-142.498
-149.029
-129.685
-89.711
-38.623
16.307
67.809
107.882
134.498
146.98
147.217
142.39
136.168
129.822
123.513
114.219
101.102
85.999
71.044
58.646
49.877
44.386
41.599
40.917
41.896
43.983
46.427
48.749
50.722
52.314
53.693
54.988
56.276
57.747
59.644
62.09
65.126
68.723
72.772
77.188
81.91
86.847
91.9
97.009
102.141
107.287
112.461
117.662
122.878
128.106
133.341
138.573
143.786
148.955
154.054
159.061
163.964
168.746
173.396
177.898
182.24
186.413
190.409
194.22
197.838
201.256
204.471
207.48
210.284
212.887
215.292
217.504
219.53
221.378
223.055
224.568
225.925
227.129
228.186
229.101
229.878
230.52
231.031
231.413
231.667
231.797
231.802
231.681
231.433
231.055
230.54
229.885
229.081
228.119
226.988
225.678
224.176
222.469
220.543
218.383
215.975
213.302
210.349
207.1
203.541
199.656
195.431
190.853
185.911
180.595
174.896
168.807
162.324
155.443
148.162
140.484
132.41
123.945
115.096
105.874
96.288
86.354
76.089
65.509
54.637
43.496
32.109
20.505
8.71
-3.244
-15.327
-27.505
-39.746
-52.016
-64.278
-76.499
-88.642
-100.673
-112.557
-124.26
-135.748
-146.99
-157.954
-168.611
-178.933
-188.894
-198.468
