Name
Date of Birth,"Dec 28, 2003"
Recorded Date,2024-09-19 10:06:07 -0500
Classification,Poor Recording
Symptoms,
Software Version,1.90
Device,"Watch4,4"
Sample Rate,512.711 hertz


Lead,Lead I
Unit,µV

176.121
216.638
218.932
187.473
134.142
73.124
10.683
-57.587
-135.587
-218.883
-290.974
-328.258
-312.46
-242.88
-139.837
-34.356
42.862
73.591
61.686
24.579
-14.998
-36.509
-33.557
-10.386
24.16
60.383
94.68
128.292
163.369
201.194
241.082
281.558
321.852
362.109
402.787
443.854
484.977
526.074
566.729
606.479
644.764
680.236
711.789
739.274
762.765
782.686
800.353
816.808
832.872
850.023
869.416
891.534
916.933
945.568
976.177
1007.656
1038.961
1068.623
1094.592
1113.659
1122.343
1118.216
1102.306
1077.562
1044.635
1000.782
938.687
850.648
734.526
593.094
434.056
267.948
104.93
-43.425
-167.347
-262.749
-332.015
-384.282
-428.399
-469.102
-505.78
-533.229
-550.482
-559.998
-565.877
-575.027
-587.9
-599.624
-605.589
-598.899
-578.065
-548.393
-514.256
-480.64
-449.341
-417.25
-382.783
-345.434
-305.872
-266.586
-228.968
-193.432
-160.394
-130.113
-103.016
-79.673
-60.409
-45.415
-35.004
-29.552
-29.342
-34.536
-45.174
-61.221
-82.817
-110.223
-143.568
-182.893
-228.096
-278.936
-335.265
-396.938
-463.694
-535.206
-611.033
-690.659
-773.635
-859.54
-947.909
-1038.246
-1129.92
-1222.219
-1314.513
-1406.176
-1496.591
-1585.15
-1671.125
-1753.79
-1832.532
-1906.805
-1976.12
-2040.035
-2098.082
-2149.8
-2194.811
-2232.779
-2263.449
-2286.626
-2302.155
-2309.984
-2310.155
-2302.805
-2288.196
-2266.641
-2238.437
-2203.89
-2163.327
-2117.051
-2065.415
-2008.8
-1947.599
-1882.246
-1813.193
-1740.886
-1665.704
-1587.962
-1507.95
-1425.931
-1342.163
-1256.868
-1170.28
-1082.634
-994.208
-905.371
-816.488
-727.899
-639.901
-552.773
-466.792
-382.276
-299.641
-219.272
-141.511
-66.639
5.151
73.655
138.694
200.143
257.973
312.27
363.145
410.698
454.993
496.173
534.46
570.197
603.862
635.874
666.619
696.412
725.47
754.015
782.243
810.294
838.233
866.093
893.903
921.739
949.728
977.896
1006.174
1034.365
1062.152
1089.248
1115.367
1140.28
1163.831
1185.89
1206.367
1225.225
1242.472
1258.105
1272.11
1284.419
1294.91
1303.526
1310.268
1315.217
1318.536
1320.403
1321.019
1320.562
1319.173
1316.965
1314.008
1310.34
1305.971
1300.918
1295.198
1288.867
1282.016
1274.72
1267.044
1259.02
1250.649
1241.912
1232.771
1223.189
1213.14
1202.614
1191.621
1180.189
1168.36
1156.186
1143.722
1131.015
1118.097
1104.999
1091.744
1078.364
1064.892
1051.37
1037.841
1024.352
1010.948
997.673
984.563
971.649
958.956
946.5
934.293
922.343
910.659
899.248
888.117
877.27
866.711
856.442
846.462
836.768
827.357
818.218
809.342
800.716
792.325
784.154
776.187
768.404
760.787
753.315
745.968
738.725
731.564
724.465
717.408
710.371
703.335
696.28
689.188
682.044
674.83
667.532
660.139
652.64
645.028
637.296
629.443
621.468
613.371
605.154
596.821
588.379
579.831
571.185
562.447
553.626
544.732
535.779
526.779
517.747
508.701
499.66
490.646
481.68
472.782
463.967
455.254
446.659
438.198
429.885
421.724
413.722
405.887
398.229
390.759
383.485
376.41
369.54
362.882
356.444
350.23
344.238
338.455
332.873
327.483
322.29
317.317
312.571
308.055
303.765
299.697
295.839
292.162
288.599
285.045
281.394
277.553
273.463
269.089
264.391
259.353
253.938
248.098
241.807
235.006
227.635
219.66
211.06
201.884
192.287
182.471
172.697
163.277
154.304
145.725
137.393
128.877
119.843
110.132
99.382
87.357
74.364
60.969
48.17
37.43
29.611
25.104
24.408
27.301
32.685
38.912
43.329
42.844
34.859
16.802
-13.5
-56.907
-112.331
-176.591
-246.866
-320.807
-396.665
-474.005
-547.796
-610.177
-655.426
-676.96
-674.267
-654.957
-624.815
-591.711
-563.966
-541.669
-526.695
-521.902
-524.364
-534.28
-550.263
-566.708
-582.861
-598.682
-613.431
-628.208
-641.918
-652.564
-660.062
-665.318
-669.811
-674.733
-680.372
-686.484
-692.963
-700.182
-708.369
-717.302
-726.507
-735.506
-744.089
-752.346
-760.423
-768.328
-776.022
-783.515
-790.895
-798.327
-805.944
-813.822
-822.003
-830.501
-839.332
-848.523
-858.089
-868.034
-878.353
-889.018
-899.997
-911.268
-922.827
-934.675
-946.817
-959.241
-971.929
-984.86
-998.014
-1011.379
-1024.941
-1038.682
-1052.578
-1066.61
-1080.759
-1095.016
-1109.377
-1123.833
-1138.37
-1152.969
-1167.608
-1182.27
-1196.945
-1211.624
-1226.294
-1240.939
-1255.548
-1270.119
-1284.662
-1299.199
-1313.738
-1328.277
-1342.811
-1357.334
-1371.839
-1386.308
-1400.696
-1414.927
-1428.909
-1442.552
-1455.773
-1468.496
-1480.63
-1492.071
-1502.712
-1512.474
-1521.312
-1529.205
-1536.123
-1542.004
-1546.834
-1550.675
-1553.662
-1556.004
-1557.929
-1559.608
-1561.29
-1563.336
-1565.949
-1569.199
-1572.976
-1576.859
-1580.495
-1583.758
-1586.353
-1587.854
-1588.225
-1587.651
-1586.817
-1587.051
-1589.023
-1592.666
-1597.936
-1604.644
-1611.992
-1618.653
-1621.98
-1618.144
-1604.443
-1579.265
-1541.234
-1489.293
-1422.719
-1341.584
-1247.996
-1145.931
-1038.937
-930.025
-822.066
-718.109
-621.78
-536.32
-463.707
-404.266
-357.55
-322.93
-299.894
-287.365
-283.515
-286.548
-294.098
-304.139
-315.776
-328.222
-340.213
-350.64
-357.749
-358.942
-353.012
-339.306
-316.405
-283.164
-238.981
-183.535
-118.503
-47.47
26.679
101.427
173.761
240.901
300.314
349.767
388.903
419.311
442.704
460.645
475.159
488.485
502.679
519.498
539.526
561.875
585.466
609.781
634.055
657.051
677.85
696.017
712.337
729.215
749.011
773.094
802.993
840.663
887.75
945.585
1012.786
1084.709
1158.549
1232.929
1307.441
1383.661
1456.955
1518.079
1559.663
1574.42
1562.385
1530.828
1485.797
1434.33
1380.755
1324.874
1267.518
1208.861
1149.873
1093.854
1043.1
998.84
960.627
925.931
892.433
859.203
826.041
793.017
759.952
726.197
691.749
657.73
625.596
596.263
569.988
546.572
525.805
507.888
492.966
480.713
470.533
461.825
454.084
447.026
440.417
433.908
427.213
420.139
412.564
404.472
395.852
386.624
376.721
366.055
354.426
341.659
327.559
311.906
294.638
275.764
255.324
233.394
210.005
185.176
158.991
131.555
102.921
73.174
42.357
10.508
-22.135
-55.287
-88.641
-121.815
-154.517
-186.506
-217.508
-247.245
-275.478
-301.977
-326.595
-349.276
-369.904
-388.359
-404.497
-418.145
-429.307
-438.088
-444.629
-449.123
-451.756
-452.706
-452.23
-450.663
-448.28
-445.311
-441.915
-438.136
-434.053
-429.773
-425.434
-421.199
-417.108
-413.084
-408.982
-404.64
-399.906
-394.688
-388.81
-381.939
-373.898
-364.679
-354.435
-343.66
-332.82
-322.01
-311.307
-300.856
-290.402
-279.664
-268.339
-255.506
-240.472
-223.477
-204.862
-185.29
-166.62
-150.666
-139.22
-134.909
-139.63
-153.927
-178.408
-213.034
-255.823
-304.612
-356.769
-408.465
-456.913
-500.446
-536.937
-564.69
-583.683
-594.25
-597.679
-596.547
-592.456
-586.3
-579.444
-573.179
-568.08
-564.447
-561.785
-558.734
-554.634
-549.399
-542.88
-535.005
-525.824
-515.459
-504.378
-493.445
-483.214
-473.892
-465.594
-458.262
-451.821
-446.267
-441.506
-437.307
-433.485
-429.881
-426.314
-422.726
-419.077
-415.261
-411.219
-406.896
-402.237
-397.254
-391.995
-386.493
-380.798
-374.969
-369.041
-363.076
-357.157
-351.36
-345.783
-340.491
-335.522
-330.917
-326.707
-322.916
-319.559
-316.632
-314.103
-311.951
-310.158
-308.702
-307.567
-306.728
-306.149
-305.797
-305.638
-305.639
-305.772
-306.01
-306.326
-306.693
-307.089
-307.495
-307.897
-308.279
-308.62
-308.9
-309.099
-309.199
-309.183
-309.034
-308.734
-308.27
-307.631
-306.807
-305.793
-304.583
-303.176
-301.568
-299.763
-297.761
-295.568
-293.189
-290.632
-287.908
-285.027
-282.003
-278.849
-275.579
-272.21
-268.757
-265.235
-261.66
-258.049
-254.418
-250.781
-247.155
-243.555
-239.996
-236.491
-233.056
-229.702
-226.441
-223.285
-220.244
-217.326
-214.538
-211.885
-209.371
-206.999
-204.77
-202.682
-200.735
-198.925
-197.246
-195.694
-194.259
-192.935
-191.71
-190.573
-189.512
-188.515
-187.567
-186.654
-185.762
-184.875
-183.977
-183.054
-182.089
-181.067
-179.972
-178.787
-177.498
-176.089
-174.544
-172.848
-170.987
-168.946
-166.712
-164.272
-161.614
-158.725
-155.595
-152.214
-148.573
-144.664
-140.478
-136.01
-131.255
-126.207
-120.865
-115.226
-109.29
-103.057
-96.528
-89.707
-82.598
-75.206
-67.535
-59.594
-51.391
-42.935
-34.235
-25.304
-16.155
-6.801
2.743
12.46
22.333
32.343
42.473
52.701
63.008
73.373
83.774
94.19
104.598
114.977
125.303
135.554
145.708
155.743
165.639
175.375
184.932
194.292
203.438
212.355
221.028
229.445
237.592
245.458
253.034
260.313
267.288
273.957
280.318
286.373
292.125
297.58
302.748
307.638
312.262
316.632
320.763
324.671
328.375
331.892
335.243
338.449
341.535
344.524
347.443
350.315
353.164
356.014
358.887
361.806
364.792
367.864
371.04
374.34
377.784
381.389
385.173
389.149
393.33
397.724
402.34
407.181
412.246
417.53
423.023
428.72
434.612
440.692
446.948
453.367
459.938
466.652
473.497
480.462
487.524
494.657
501.835
509.03
516.214
523.358
530.43
537.4
544.248
550.96
557.52
563.911
570.104
576.06
581.744
587.125
592.177
596.887
601.246
605.274
609.017
612.552
615.958
619.297
622.599
625.871
629.124
632.349
635.533
638.662
641.711
644.686
647.622
650.558
653.468
656.235
658.694
660.633
661.857
662.254
661.693
659.961
657.057
653.212
648.675
643.831
638.859
633.48
627.654
621.685
615.514
608.987
602.007
594.059
585.327
576.906
569.254
562.538
557.396
554.16
553.336
556.309
563.516
574.667
590.251
610.28
634.268
662.121
692.98
724.982
756.472
785.324
808.979
825.793
834.13
832.427
819.999
797.336
766.786
731.582
693.708
652.056
604.464
550.99
496.02
449.108
418.572
407.469
413.031
426.875
442.303
454.07
458.104
453.64
437.919
412.047
381.728
350.824
324.865
305.51
289.029
273.695
257.891
240.951
224.684
209.476
194.671
180.111
165.422
150.524
135.829
121.503
107.566
94.201
81.617
69.918
59.129
49.192
39.987
31.452
23.581
16.35
9.721
3.664
-1.83
-6.775
-11.203
-15.114
-18.495
-21.35
-23.681
-25.52
-26.965
-28.069
-28.797
-29.265
-29.77
-30.391
-31.075
-31.897
-32.624
-33.795
-37.033
-41.981
-47.179
-50.215
-46.57
-36.595
-24.854
-16.067
-16.895
-27.588
-42.01
-55.442
-62.457
-62.968
-62.291
-62.197
-64.31
-67.291
-66.996
-65.07
-63.219
-63.839
-70.598
-80.534
-90.824
-99.625
-104.072
-106.202
-108.073
-110.14
-113.665
-117.912
-121.951
-125.957
-129.771
-133.432
-137.122
-140.699
-144.056
-147.216
-150.177
-152.921
-155.453
-157.784
-159.921
-161.889
-163.717
-165.406
-166.958
-168.391
-169.717
-170.955
-172.122
-173.235
-174.311
-175.372
-176.44
-177.535
-178.681
-179.898
-181.208
-182.632
-184.191
-185.905
-187.793
-189.874
-192.163
-194.676
-197.425
-200.421
-203.672
-207.182
-210.956
-214.993
-219.289
-223.841
-228.638
-233.67
-238.923
-244.381
-250.025
-255.833
-261.782
-267.845
-273.994
-280.2
-286.43
-292.65
-298.827
-304.924
-310.905
-316.73
-322.364
-327.767
-332.901
-337.729
-342.212
-346.314
-350
-353.238
-355.994
-358.239
-359.947
-361.094
-361.658
-361.621
-360.968
-359.689
-357.775
-355.222
-352.03
-348.202
-343.744
-338.669
-332.989
-326.725
-319.897
-312.532
-304.659
-296.309
-287.518
-278.324
-268.766
-258.889
-248.736
-238.355
-227.794
-217.101
-206.328
-195.525
-184.743
-174.033
-163.443
-153.024
-142.822
-132.882
-123.248
-113.96
-105.058
-96.577
-88.55
-81.007
-73.976
-67.479
-61.536
-56.164
-51.375
-47.177
-43.576
-40.571
-38.16
-36.337
-35.091
-34.411
-34.281
-34.681
-35.59
-36.985
-38.838
-41.121
-43.803
-46.853
-50.237
-53.921
-57.872
-62.058
-66.445
-71.004
-75.703
-80.516
-85.415
-90.376
-95.374
-100.388
-105.396
-110.381
-115.327
-120.219
-125.046
-129.8
-134.477
-139.072
-143.588
-148.024
-152.385
-156.674
-160.897
-165.061
-169.175
-173.249
-177.294
-181.322
-185.349
-189.391
-193.466
-197.59
-201.77
-206.017
-210.338
-214.739
-219.223
-223.789
-228.43
-233.141
-237.921
-242.767
-247.673
-252.632
-257.63
-262.658
-267.707
-272.768
-277.835
-282.896
-287.929
-292.914
-297.825
-302.633
-307.31
-311.822
-316.13
-320.204
-324.017
-327.541
-330.748
-333.598
-336.043
-338.02
-339.46
-340.294
-340.452
-339.927
-338.78
-337.088
-334.949
-332.443
-329.583
-326.423
-323.107
-319.591
-315.668
-311.181
-305.927
-299.978
-293.824
-287.684
-281.445
-275.309
-269.669
-264.863
-261.419
-259.202
-257.205
-255.033
-252.93
-250.73
-248.092
-244.428
-238.603
-230.222
-219.846
-207.335
-191.926
-173.262
-151.283
-126.637
-100.891
-75.539
-51.727
-30.934
-15.068
-5.879
-4.852
-13.03
-30.628
-56.761
-90.013
-128.946
-171.597
-215.798
-259.109
-297.976
-328.899
-350.359
-361.688
-363.054
-356.201
-341.411
-319.09
-290.987
-257.212
-220.676
-187.276
-162.351
-152.755
-159.911
-177.803
-199.559
-217.45
-228.636
-236.321
-242.739
-249.235
-255.377
-259.027
-260.209
-260.251
-259.993
-260.116
-260.651
-261.354
-262.575
-264.644
-267.421
-270.494
-273.489
-276.242
-278.794
-281.27
-283.644
-285.829
-287.838
-289.795
-291.863
-294.156
-296.72
-299.532
-302.562
-305.8
-309.229
-312.822
-316.538
-320.341
-324.206
-328.122
-332.084
-336.083
-340.109
-344.146
-348.164
-352.131
-356.013
-359.774
-363.387
-366.823
-370.048
-373.03
-375.741
-378.15
-380.232
-381.954
-383.283
-384.181
-384.611
-384.533
-383.91
-382.706
-380.886
-378.415
-375.263
-371.401
-366.803
-361.447
-355.312
-348.38
-340.634
-332.06
-322.648
-312.391
-301.283
-289.323
-276.514
-262.864
-248.382
-233.086
-216.993
-200.127
-182.514
-164.184
-145.17
-125.509
-105.241
-84.41
-63.063
-41.251
-19.029
3.547
26.415
49.515
72.782
96.151
119.556
142.931
166.209
189.325
212.213
234.809
257.05
278.873
300.221
321.035
341.261
360.848
379.748
397.916
415.31
431.892
447.629
462.491
476.451
489.486
501.58
512.717
522.889
532.09
540.319
547.58
553.88
559.23
563.646
567.148
569.757
571.5
572.404
572.501
571.823
570.406
568.284
565.495
562.076
558.065
553.499
548.417
542.854
536.849
530.436
523.651
516.527
509.097
501.395
493.449
485.29
476.945
468.443
459.808
451.065
442.236
433.344
424.408
415.448
406.479
397.519
388.581
379.679
370.826
362.034
353.313
344.673
336.126
327.682
319.35
311.143
303.069
295.141
287.371
279.771
272.354
265.133
258.122
251.336
244.788
238.493
232.464
226.715
221.258
216.104
211.265
206.749
202.564
198.719
195.217
192.065
189.264
186.817
184.724
182.981
181.585
180.53
179.808
179.408
179.318
179.523
180.009
180.756
181.744
182.952
184.355
185.924
187.633
189.449
191.34
193.271
195.205
197.107
198.941
200.672
202.265
203.688
204.908
205.894
206.617
207.051
207.169
206.947
206.362
205.396
204.031
202.257
200.063
197.444
194.396
190.919
187.017
182.694
177.958
172.818
167.285
161.377
155.111
148.512
141.604
134.416
126.98
119.333
111.517
103.571
95.533
87.442
79.338
71.257
63.233
55.295
47.463
39.763
32.22
24.863
17.722
10.826
4.202
-2.117
-8.103
-13.732
-18.985
-23.857
-28.349
-32.455
-36.161
-39.442
-42.257
-44.575
-46.379
-47.657
-48.412
-48.679
-48.511
-48.005
-47.291
-46.481
-45.655
-44.863
-44.132
-43.496
-43
-42.719
-42.71
-43.04
-43.787
-44.986
-46.655
-48.753
-51.101
-53.424
-55.524
-57.273
-58.661
-59.904
-61.15
-62.521
-64.39
-66.972
-69.994
-72.924
-74.856
-74.46
-70.708
-62.978
-50.37
-33.305
-14.22
5.34
23.843
40.354
56.484
69.615
73.176
62.292
32.144
-15.819
-73.036
-134.633
-197.162
-257.653
-315.335
-363.796
-393.644
-400.115
-383.239
-348.627
-307.625
-270.753
-243.463
-228.651
-223.903
-222.985
-221.936
-217.367
-208.45
-197.782
-186.789
-176.271
-166.238
-155.31
-143.115
-130.084
-116.836
-104.353
-93.052
-82.872
-73.739
-65.456
-57.844
-50.734
-43.865
-37.046
-30.218
-23.396
-16.635
-9.964
-3.34
3.266
9.851
16.424
22.964
29.449
35.863
42.148
48.218
53.983
59.341
64.231
68.636
72.552
75.987
78.957
81.464
83.53
85.191
86.469
87.387
87.964
88.216
88.174
87.885
87.394
86.747
85.988
85.15
84.268
83.374
82.495
81.652
80.863
80.141
79.501
78.962
78.542
78.257
78.121
78.147
78.343
78.721
79.285
80.036
80.972
82.087
83.375
84.825
86.427
88.169
90.035
92.009
94.076
96.217
98.413
100.644
102.889
105.125
107.33
109.484
111.564
113.55
115.424
117.167
118.765
120.201
121.464
122.539
123.417
124.088
124.544
124.778
124.785
124.561
124.105
123.418
122.502
121.361
120.002
118.432
116.66
114.699
112.559
110.256
107.804
105.219
102.519
99.722
96.847
93.914
90.944
87.957
84.973
82.013
79.098
76.245
73.475
70.804
68.25
65.828
63.553
61.44
59.5
57.746
56.188
54.835
53.697
52.78
52.09
51.632
51.41
51.425
51.678
52.17
52.897
53.856
55.044
56.453
58.076
59.905
61.928
64.133
66.508
69.038
71.706
74.497
77.393
80.375
83.426
86.525
89.653
92.793
95.923
99.025
102.08
105.068
107.972
110.773
113.452
115.992
118.377
120.59
122.616
124.439
126.046
127.425
128.562
129.448
130.074
130.432
130.514
130.318
129.839
129.078
128.036
126.716
125.125
123.27
121.162
118.812
116.235
113.446
110.461
107.299
103.979
100.522
96.948
93.278
89.537
85.746
81.929
78.11
74.313
70.561
66.879
63.289
59.815
56.479
53.304
50.31
47.52
44.954
42.631
40.569
38.785
37.295
36.11
35.242
34.697
34.48
34.593
35.033
35.795
36.874
38.26
39.942
41.908
44.143
46.632
49.358
52.301
55.44
58.753
62.217
65.806
69.497
73.264
77.082
80.927
84.776
88.604
92.385
96.095
99.706
103.188
106.514
109.654
112.586
115.289
117.744
119.938
121.861
123.51
124.88
125.971
126.779
127.3
127.534
127.48
127.14
126.518
125.615
124.43
122.964
121.21
119.159
116.805
114.144
111.178
107.919
104.385
100.604
96.61
92.431
88.112
83.689
79.201
74.714
70.295
66.029
62.029
58.398
55.212
52.501
50.238
48.335
46.709
45.234
43.729
42.159
40.575
39.16
38.223
37.962
38.43
39.599
41.391
43.353
44.697
44.447
41.5
35.211
25.372
12.121
-4.177
-22.621
-41.563
-59.071
-73.103
-82.212
-85.458
-82.132
-71.639
-53.727
-29.177
0.614
34.055
69.96
107.137
143.629
176.755
203.401
220.988
227.78
222.198
201.902
165.859
115.796
54.409
-14.479
-89.711
-173.784
-265.328
-358.951
-443.416
-503.975
-534.976
-536.421
-514.23
-480.03
-437.638
-391.196
-347.047
-306.484
-275.143
-256.048
-245.013
-240.057
-238.24
-237.738
-240.93
-249.029
-262.076
-278.634
-295.934
-312.104
-325.651
-336.087
-343.982
-349.521
-353.269
-356.301
-359.035
-361.918
-365.635
-370.338
-376.048
-382.789
-390.154
-397.63
-405.024
-412.197
-419.061
-425.703
-432.145
-438.426
-444.717
-451.199
-458.001
-465.186
-472.729
-480.562
-488.641
-496.943
-505.444
-514.113
-522.898
-531.759
-540.673
-549.622
-558.601
-567.583
-576.532
-585.418
-594.207
-602.874
-611.403
-619.776
-627.974
-635.983
-643.784
-651.362
-658.708
-665.81
-672.653
-679.224
-685.507
-691.486
-697.151
-702.49
-707.491
-712.147
-716.453
-720.404
-724.001
-727.246
-730.141
-732.689
-734.895
-736.763
-738.297
-739.502
-740.383
-740.946
-741.197
-741.14
-740.784
-740.134
-739.2
-737.987
-736.504
-734.757
-732.753
-730.499
-728.002
-725.268
-722.305
-719.12
-715.721
-712.115
-708.309
-704.313
-700.133
-695.777
-691.252
-686.565
-681.723
-676.731
-671.598
-666.33
-660.935
-655.42
-649.794
-644.066
-638.247
-632.347
-626.378
-620.352
-614.282
-608.184
-602.071
-595.959
-589.867
-583.81
-577.808
-571.879
-566.042
-560.317
-554.723
-549.279
-544.004
-538.917
-534.035
-529.375
-524.952
-520.782
-516.876
-513.247
-509.903
-506.853
-504.102
-501.653
-499.508
-497.665
-496.119
-494.865
-493.891
-493.186
-492.732
-492.512
-492.501
-492.676
-493.006
-493.46
-494.003
-494.597
-495.202
-495.775
-496.272
-496.644
-496.845
-496.824
-496.53
-495.912
-494.919
-493.501
-491.606
-489.187
-486.195
-482.587
-478.318
-473.348
-467.641
-461.162
-453.879
-445.764
-436.794
-426.95
-416.215
-404.578
-392.034
-378.58
-364.221
-348.964
-332.824
-315.819
-297.973
-279.313
-259.871
-239.686
-218.798
-197.253
-175.1
-152.393
-129.189
-105.546
-81.528
-57.198
-32.62
-7.86
17.016
41.944
66.859
91.698
116.399
140.902
165.146
189.072
212.626
235.753
258.402
280.524
302.074
323.01
343.294
362.892
381.774
399.913
417.284
433.867
449.643
464.6
478.727
492.018
504.47
516.086
526.871
536.837
545.997
554.367
561.963
568.806
574.915
580.311
585.01
589.032
592.394
595.117
597.224
598.737
599.681
600.08
599.963
599.362
598.306
596.825
594.944
592.681
590.057
587.093
583.806
580.212
576.326
572.163
567.743
563.094
558.243
553.208
547.995
542.593
537
531.22
525.262
519.14
512.875
506.497
500.069
493.691
487.461
481.476
475.797
470.44
465.42
460.741
456.408
452.44
448.824
445.522
442.511
439.766
437.251
434.911
432.598
430.074
427.097
423.419
418.868
413.374
406.9
399.461
391.133
382.001
372.205
361.957
351.457
340.887
330.465
320.409
311.019
302.796
296.337
292.119
290.424
291.258
294.355
299.493
306.569
315.239
324.967
335.559
347.16
360.58
377.291
398.162
423.35
453.029
487.264
525.433
566.267
607.031
643.709
673.569
694.899
705.744
704.164
688.681
658.774
617.104
569.145
517.497
463.215
406.978
347.922
291.038
244.603
214.265
206.026
219.806
248.556
285.583
322.154
352.002
375.288
392.314
403.756
409.259
405.71
392.098
370.11
342.955
314.471
287.011
261.454
238.633
219.795
205.611
195.867
189.366
184.3
179.628
175.144
170.763
166.269
161.459
156.216
150.77
145.756
141.554
138.252
135.872
134.336
133.66
133.987
135.431
138.032
141.789
146.613
152.356
158.94
166.316
174.434
183.271
192.758
202.811
213.375
224.416
235.911
247.806
259.987
272.273
284.479
296.497
308.317
320.006
331.612
343.142
354.594
365.968
377.296
388.606
399.889
411.097
422.173
433.094
443.867
454.538
465.152
475.715
486.196
496.538
506.694
516.637
526.34
535.771
544.886
553.651
562.059
570.128
577.874
585.301
592.399
599.152
605.545
611.576
617.243
622.547
627.482
632.043
636.225
640.029
643.454
646.497
649.144
651.377
653.18
654.536
655.435
655.862
655.804
655.246
654.177
652.588
650.473
647.823
644.629
640.883
636.58
631.715
626.284
620.285
613.717
606.582
598.884
590.628
581.823
572.479
562.608
552.227
541.353
530.007
518.211
505.991
493.374
480.39
467.07
453.45
439.566
425.455
411.157
396.714
382.167
367.56
352.935
338.336
323.807
309.389
295.129
281.067
267.246
253.708
240.492
227.639
215.184
203.164
191.612
180.558
170.031
160.057
150.658
141.856
133.666
126.103
119.178
112.899
107.269
102.292
97.963
94.279
91.231
88.808
86.994
85.774
85.126
85.029
85.458
86.385
87.783
89.621
91.867
94.487
97.447
100.712
104.246
108.013
111.978
116.104
120.357
124.701
129.103
133.532
137.956
142.347
146.676
150.918
155.049
159.048
162.895
166.575
170.072
173.376
176.477
179.37
182.051
184.521
186.781
188.836
190.693
192.361
193.85
195.175
196.35
197.391
198.316
199.144
199.895
200.59
201.248
201.891
202.539
203.211
203.926
204.703
205.558
206.508
207.566
208.746
210.059
211.515
213.12
214.88
216.794
218.861
221.076
223.43
225.911
228.504
231.192
233.953
236.767
239.606
242.445
245.253
247.997
250.644
253.157
255.5
257.634
259.519
261.115
262.385
263.289
263.792
263.855
263.444
262.523
261.061
259.026
256.388
253.119
249.194
244.592
239.296
233.295
226.583
219.158
211.026
202.195
192.678
182.493
171.66
160.204
148.151
135.528
122.365
108.693
94.547
79.969
65.004
49.703
34.122
18.318
2.354
-13.699
-29.771
-45.791
-61.699
-77.434
-92.936
-108.128
-122.919
-137.22
-150.961
-164.074
-176.503
-188.205
-199.148
-209.325
-218.779
-227.565
-235.741
-243.36
-250.429
-256.933
-262.882
-268.301
-273.246
-277.779
-281.893
-285.559
-288.77
-291.485
-293.659
-295.226
-295.947
-295.519
-293.8
-290.756
-286.559
-281.644
-276.288
-270.616
-264.913
-259.383
-253.88
-248.056
-240.999
-231.234
-217.731
-199.864
-177.138
-149.933
-119.475
-87.374
-56.347
-29.983
-11.342
-3.342
-7.809
-23.938
-50.151
-85.299
-129.462
-183.605
-246.331
-311.09
-365.966
-399.799
-407.414
-391.517
-363.104
-333.235
-308.161
-290.049
-276.346
-264.574
-254.933
-248.396
-246.229
-248.66
-254.281
-261.076
-267.533
-272.889
-276.775
-279.214
-280.418
-280.644
-280.48
-280.607
-281.286
-282.515
-284.097
-285.717
-287.221
-288.527
-289.491
-289.992
-289.974
-289.45
-288.542
-287.374
-285.991
-284.38
-282.473
-280.229
-277.675
-274.867
-271.886
-268.794
-265.622
-262.407
-259.196
-256.017
-252.879
-249.766
-246.635
-243.459
-240.235
-236.972
-233.693
-230.419
-227.153
-223.898
-220.653
-217.418
-214.191
-210.963
-207.721
-204.454
-201.158
-197.832
-194.484
-191.116
-187.728
-184.318
-180.886
-177.429
-173.948
-170.437
-166.892
-163.311
-159.692
-156.038
-152.349
-148.631
-144.888
-141.124
-137.348
-133.566
-129.786
-126.015
-122.263
-118.539
-114.853
-111.218
-107.644
-104.147
-100.742
-97.444
-94.272
-91.244
-88.379
-85.696
-83.214
-80.951
-78.928
-77.162
-75.671
-74.474
-73.588
-73.03
-72.817
-72.965
-73.488
-74.398
-75.706
-77.421
-79.549
-82.097
-85.066
-88.459
-92.273
-96.505
-101.151
-106.202
-111.648
-117.475
-123.667
-130.205
-137.069
-144.235
-151.676
-159.364
-167.271
-175.364
-183.61
-191.974
-200.423
-208.918
-217.422
-225.898
-234.309
-242.615
-250.78
-258.766
-266.537
-274.059
-281.297
-288.22
-294.798
-301.001
-306.805
-312.184
-317.117
-321.586
-325.576
-329.074
-332.072
-334.565
-336.552
-338.034
-339.018
-339.513
-339.533
-339.093
-338.214
-336.918
-335.231
-333.18
-330.798
-328.117
-325.173
-322.001
-318.64
-315.128
-311.505
-307.809
-304.081
-300.358
-296.681
-293.085
-289.607
-286.283
-283.145
-280.224
-277.55
-275.147
-273.039
-271.245
-269.782
-268.661
-267.893
-267.482
-267.429
-267.732
-268.383
-269.371
-270.682
-272.295
-274.189
-276.337
-278.708
-281.27
-283.987
-286.822
-289.734
-292.683
-295.627
-298.522
-301.326
-303.993
-306.479
-308.742
-310.739
-312.427
-313.768
-314.723
-315.258
-315.338
-314.935
-314.021
-312.572
-310.567
-307.988
-304.82
-301.054
-296.682
-291.704
-286.122
-279.944
-273.183
-265.856
-257.986
-249.598
-240.723
-231.394
-221.646
-211.518
-201.052
-190.291
-179.281
-168.069
-156.705
-145.24
-133.726
-122.214
-110.756
-99.402
-88.2
-77.197
-66.44
-55.971
-45.834
-36.07
-26.719
-17.819
-9.408
-1.52
5.814
12.569
18.722
24.253
29.149
33.401
37.007
39.966
42.283
43.96
45.008
45.438
45.261
44.488
43.131
41.199
38.709
35.683
32.142
28.119
23.643
18.751
13.484
7.88
1.974
-4.2
-10.621
-17.264
-24.093
-31.069
-38.131
-45.206
-52.229
-59.135
-65.869
-72.404
-78.735
-84.884
-90.911
-96.884
-102.854
-108.857
-114.889
-120.925
-126.95
-132.955
-138.968
-145.051
-151.257
-157.639
-164.218
-170.958
-177.795
-184.557
-190.938
-196.721
-201.811
-206.256
-210.36
-214.408
-218.561
-223.127
-228.321
-233.86
-239.058
-242.712
-243.269
-239.654
-231.208
-217.308
-197.951
-174.142
-147.824
-122.071
-100.236
-84.896
-78.212
-82.231
-98.197
-126.083
-164.357
-209.907
-259.137
-308.777
-355.473
-395.571
-425.823
-444.207
-450.213
-444.798
-429.74
-407.061
-379.32
-349.85
-321.829
-297.454
-277.965
-263.613
-253.971
-248.451
-245.987
-244.877
-243.718
-241.715
-238.511
-234.322
-229.532
-224.372
-219.248
-214.726
-211.082
-208.385
-206.527
-205.143
-203.965
-202.883
-201.77
-200.559
-199.238
-197.772
-196.161
-194.435
-192.577
-190.57
-188.392
-186.007
-183.429
-180.702
-177.897
-175.117
-172.437
-169.89
-167.499
-165.259
-163.154
-161.182
-159.33
-157.574
-155.914
-154.356
-152.915
-151.62
-150.483
-149.507
-148.686
-148.008
-147.467
-147.068
-146.816
-146.724
-146.808
-147.089
-147.597
-148.366
-149.427
-150.796
-152.494
-154.536
-156.946
-159.758
-162.993
-166.653
-170.736
-175.232
-180.118
-185.365
-190.92
-196.708
-202.655
-208.688
-214.747
-220.787
-226.771
-232.666
-238.44
-244.046
-249.474
-254.75
-259.916
-265.031
-270.164
-275.384
-280.796
-286.542
-292.744
-299.493
-306.841
-314.787
-323.296
-332.293
-341.683
-351.347
-361.102
-370.703
-379.866
-388.267
-395.596
-401.566
-405.857
-408.111
-408.011
-405.295
-399.765
-391.308
-379.867
-365.439
-348.077
-327.885
-305.059
-279.865
-252.637
-223.756
-193.58
-162.432
-130.66
-98.632
-66.688
-35.128
-4.198
25.931
55.108
83.216
110.173
135.935
160.524
184.006
206.491
228.124
249.013
269.231
288.855
307.958
326.596
344.808
362.597
379.928
396.771
413.099
428.876
444.06
458.583
472.366
485.319
497.346
508.379
518.371
527.289
535.111
541.83
547.451
551.996
555.51
558.027
559.582
560.207
559.938
558.815
556.89
554.211
550.83
546.797
542.159
536.959
531.243
525.05
518.421
511.391
503.994
496.265
488.243
479.969
471.482
462.823
454.029
445.139
436.19
427.217
418.252
409.327
400.468
391.702
383.054
374.549
366.209
358.055
350.105
342.378
334.89
327.655
320.688
313.999
307.599
301.494
295.692
290.196
285.01
280.135
275.57
271.311
267.353
263.691
260.314
257.213
254.377
251.791
249.44
247.307
245.374
243.619
242.021
240.557
239.202
237.93
236.714
235.527
234.344
233.135
231.872
230.527
229.072
227.477
225.717
223.762
221.586
219.163
216.469
213.482
210.182
206.55
202.57
198.229
193.514
188.418
182.93
177.046
170.762
164.077
156.995
149.52
141.664
133.438
124.862
115.962
106.762
97.293
87.586
77.675
67.597
57.388
47.085
36.72
26.328
15.948
5.617
-4.623
-14.726
-24.646
-34.333
-43.736
-52.797
-61.464
-69.684
-77.415
-84.621
-91.259
-97.277
-102.61
-107.201
-111.005
-113.981
-116.091
-117.316
-117.657
-117.148
-115.858
-113.866
-111.251
-108.087
-104.432
-100.326
-95.812
-90.949
-85.811
-80.475
-74.979
-69.337
-63.561
-57.617
-51.441
-44.925
-37.841
-29.926
-21.064
-11.24
-0.581
10.605
22.079
33.692
45.142
56.187
66.983
78.005
90.199
104.774
122.515
143.855
169.197
198.452
230.636
263.921
295.421
321.884
340.541
348.927
344.828
327.822
299.482
261.943
217.981
167.835
109.696
45.524
-19.268
-75.277
-110.652
-119.946
-105.286
-73.26
-35.95
-4.324
16.535
23.724
20.191
12.809
5.764
2.742
4.304
7.369
10.329
12.253
13.22
14.871
17.744
21.481
25.526
28.962
31.394
32.91
33.63
33.762
33.557
33.293
33.221
33.527
34.298
35.492
37.07
39.002
41.259
43.845
46.774
50.055
53.695
57.703
62.043
66.661
71.472
76.354
81.219
86.016
90.711
95.299
99.782
104.158
108.44
112.65
116.794
120.871
124.875
128.793
132.627
136.387
140.088
143.754
147.405
151.057
154.724
158.418
162.144
165.907
169.704
173.524
177.362
181.213
185.074
188.942
192.81
196.669
200.51
204.322
208.092
211.8
215.427
218.946
222.333
225.559
228.598
231.418
233.989
236.281
238.262
239.902
241.169
242.032
242.462
242.427
241.899
240.85
239.254
237.087
234.328
230.959
226.964
222.332
217.056
211.131
204.555
197.332
189.467
180.972
171.859
162.148
151.862
141.027
129.675
117.845
105.575
92.909
79.896
66.586
53.033
39.293
25.423
11.484
-2.463
-16.356
-30.132
-43.729
-57.083
-70.133
-82.818
-95.079
-106.859
-118.106
-128.766
-138.792
-148.14
-156.769
-164.641
-171.723
-177.987
-183.408
-187.969
-191.652
-194.451
-196.359
-197.378
-197.514
-196.777
-195.184
-192.754
-189.513
-185.489
-180.717
-175.234
-169.078
-162.295
-154.929
-147.03
-138.647
-129.833
-120.639
-111.119
-101.326
-91.313
-81.133
-70.837
-60.476
-50.098
-39.75
-29.478
-19.323
-9.327
0.473
10.042
19.348
28.364
37.062
45.421
53.423
61.052
68.296
75.147
81.6
87.652
93.306
98.565
103.437
107.929
112.055
115.828
119.263
122.378
125.192
127.723
129.994
132.025
133.839
135.457
136.902
138.194
139.354
140.403
141.362
142.248
143.08
143.877
144.653
145.425
146.208
147.015
147.858
148.747
149.693
150.703
151.783
152.941
154.18
155.504
156.916
158.418
160.013
161.702
163.483
165.356
167.318
169.368
171.5
173.71
175.991
178.339
180.748
183.214
185.732
188.298
190.906
193.552
196.232
198.94
201.672
204.421
207.181
209.944
212.706
215.462
218.205
220.93
223.632
226.305
228.944
231.542
234.092
236.585
239.012
241.366
243.638
245.82
247.907
249.895
251.779
253.562
255.244
256.824
258.303
259.68
260.953
262.12
263.173
264.101
264.894
265.542
266.043
266.399
266.618
266.705
266.671
266.532
266.303
266.006
265.652
265.234
264.756
264.23
263.685
263.169
262.726
262.38
262.155
262.063
262.105
262.274
262.52
262.756
262.896
262.849
262.573
262.082
261.37
260.42
259.195
257.612
255.651
253.352
250.752
247.902
244.87
241.717
238.625
235.915
233.773
232.26
231.275
230.497
229.696
228.819
227.832
226.696
225.695
225.399
226.605
230.409
237.686
248.805
263.696
281.954
302.295
322.61
340.601
353.698
359.459
356.126
342.552
318.045
283.388
240.798
192.838
142.512
93.053
47.371
8.064
-22.478
-43.171
-54.362
-56.92
-52.291
-42.487
-29.731
-16.121
-3.736
6.001
12.597
15.953
16.38
14.786
12.359
10.05
8.698
8.821
10.433
13.424
17.507
22.075
26.476
30.298
33.293
35.441
36.926
37.91
38.583
39.16
39.785
40.534
41.4
42.3
43.136
43.846
44.4
44.817
45.124
45.318
45.392
45.309
45.012
44.433
43.47
42.03
40.055
37.509
34.387
30.706
26.482
21.736
16.499
10.788
4.616
-2.003
-9.059
-16.531
-24.388
-32.591
-41.091
-49.833
-58.766
-67.84
-77.009
-86.228
-95.454
-104.648
-113.778
-122.809
-131.706
-140.43
-148.944
-157.211
-165.199
-172.876
-180.211
-187.179
-193.757
-199.928
-205.679
-211.001
-215.887
-220.334
-224.34
-227.908
-231.046
-233.76
-236.061
-237.965
-239.488
-240.649
-241.473
-241.985
-242.213
-242.185
-241.933
-241.489
-240.884
-240.151
-239.321
-238.424
-237.491
-236.552
-235.636
-234.769
-233.979
-233.288
-232.72
-232.294
-232.027
-231.934
-232.024
-232.306
-232.785
-233.463
-234.34
-235.412
-236.673
-238.115
-239.725
-241.491
-243.396
-245.421
-247.545
-249.746
-251.999
-254.279
-256.559
-258.813
-261.013
-263.131
-265.142
-267.017
-268.732
-270.262
-271.584
-272.676
-273.519
-274.095
-274.389
-274.389
-274.084
-273.467
-272.534
-271.282
-269.714
-267.833
-265.647
-263.164
-260.398
-257.364
-254.079
-250.563
-246.839
-242.931
-238.867
-234.675
-230.383
-226.024
-221.628
-217.229
-212.859
-208.55
-204.337
-200.25
-196.322
-192.582
-189.061
-185.785
-182.781
-180.073
-177.682
-175.627
-173.925
-172.591
-171.634
-171.065
-170.889
-171.109
-171.726
-172.739
-174.141
-175.926
-178.084
-180.602
-183.465
-186.656
-190.155
-193.939
-197.988
-202.274
-206.773
-211.458
-216.299
-221.268
-226.335
-231.469
-236.639
-241.815
-246.963
-252.054
-257.058
-261.946
-266.689
-271.261
-275.638
-279.794
-283.707
-287.358
-290.725
-293.79
-296.536
-298.948
-301.012
-302.716
-304.049
-305.003
-305.572
-305.751
-305.54
-304.937
-303.942
-302.556
-300.784
-298.628
-296.094
-293.191
-289.927
-286.313
-282.364
-278.094
-273.52
-268.662
-263.535
-258.161
-252.556
-246.741
-240.734
-234.556
-228.226
-221.764
-215.195
-208.54
-201.823
-195.069
-188.304
-181.551
-174.839
-168.191
-161.631
-155.178
-148.853
-142.672
-136.656
-130.821
-125.182
-119.754
-114.558
-109.611
-104.936
-100.552
-96.472
-92.704
-89.257
-86.131
-83.331
-80.854
-78.695
-76.854
-75.343
-74.177
-73.386
-72.993
-72.991
-73.363
-74.075
-75.064
-76.277
-77.655
-79.119
-80.616
-82.128
-83.648
-85.206
-86.831
-88.499
-90.171
-91.784
-93.273
-94.622
-95.857
-97.025
-98.257
-99.71
-101.543
-103.982
-107.185
-111.196
-116.031
-121.609
-127.805
-134.602
-141.987
-149.905
-158.341
-167.208
-176.318
-185.512
-194.438
-202.55
-209.469
-214.868
-218.606
-220.922
-221.966
-221.78
-220.71
-219.165
-217.085
-214.127
-209.289
-200.952
-188.291
-171.147
-149.345
-122.908
-92.532
-59.785
-27.625
0.014
20.18
30.777
29.768
15.182
-13.594
-54.877
-105.491
-162.189
-225.009
-296.141
-374.935
-455.067
-524.34
-570.759
-588.769
-581.864
-561.228
-537.694
-517.921
-503.85
-492.337
-480.793
-468.86
-457.13
-447.578
-441.056
-436.555
-432.517
-427.463
-420.672
-412.164
-402.299
-391.472
-380.047
-368.564
-357.705
-347.905
-339.316
-331.902
-325.417
-319.601
-314.264
-309.16
-304.005
-298.638
-292.974
-286.964
-280.619
-273.934
-266.867
-259.417
-251.616
-243.496
-235.109
-226.509
-217.734
-208.866
-200.021
-191.279
-182.682
-174.256
-165.995
-157.922
-150.115
-142.602
-135.327
-128.349
-121.894
-116.013
-110.627
-105.757
-101.148
-97.229
-95.467
-95.577
-96.148
-94.966
-87.786
-74.684
-59.936
-47.734
-44.08
-49.601
-58.545
-66.449
-68.571
-63.861
-56.592
-49.475
-44.236
-41.443
-39.465
-37.595
-35.823
-34.09
-32.679
-31.395
-30.739
-31.349
-32.25
-33.129
-32.108
-26.957
-20.167
-13.414
-9.2
-10.92
-15.566
-20.6
-24.289
-23.759
-21.063
-18.276
-15.85
-15.046
-15.125
-15.136
-15.253
-15.347
-15.473
-15.813
-16.232
-16.619
-16.994
-17.353
-17.67
-17.933
-18.136
-18.265
-18.325
-18.323
-18.234
-18.037
-17.722
-17.274
-16.685
-15.945
-15.044
-13.972
-12.725
-11.301
-9.699
-7.918
-5.96
-3.83
-1.531
0.928
3.54
6.295
9.183
12.191
15.307
18.517
21.807
25.16
28.561
31.995
35.444
38.893
42.326
45.726
49.08
52.374
55.595
58.731
61.773
64.713
67.546
70.268
72.877
75.375
77.767
80.057
82.255
84.372
86.423
88.421
90.386
92.337
94.296
96.285
98.328
100.45
102.677
105.035
107.551
110.25
113.159
116.305
119.71
123.4
127.397
131.721
136.393
141.427
146.84
152.643
158.844
165.449
172.462
179.88
187.701
195.915
204.513
213.48
222.799
232.449
242.408
252.648
263.143
273.859
284.766
295.828
307.009
318.273
329.582
340.901
352.192
363.418
374.543
385.532
396.35
406.964
417.344
427.457
437.278
446.779
455.94
464.742
473.168
481.206
488.848
496.089
502.927
509.364
515.404
521.052
526.318
531.215
535.757
539.962
543.85
547.442
550.763
553.837
556.691
559.351
561.842
564.189
566.413
568.538
570.586
572.578
574.534
576.473
578.415
580.379
582.379
584.428
586.534
588.703
590.937
593.235
595.591
597.995
600.434
602.897
605.374
607.85
610.311
612.739
615.118
617.433
619.67
621.808
623.829
625.705
627.409
628.915
630.198
631.232
631.991
632.449
632.583
632.386
631.847
630.954
629.692
628.02
625.905
623.326
620.263
616.705
612.659
608.149
603.231
598.006
592.575
587.021
581.402
575.727
570.004
564.23
558.392
552.508
546.593
540.673
534.827
529.115
523.533
518
512.314
506.191
499.418
491.771
483.017
473.143
462.217
450.551
438.781
427.232
415.904
404.777
393.678
382.307
370.502
357.63
342.653
325.604
307.206
288.454
270.79
255.189
242.257
233.447
230.593
234.228
244.204
259.831
279.901
304.389
333.506
366.098
400.492
435.839
471.379
506.37
540.12
569.288
590.256
602.19
603.958
596.033
580.113
554.468
518.966
472.829
411.922
337.33
252.622
166.283
94.942
49.711
34.333
45.268
69.619
96.587
121.104
141.549
160.352
179.402
198.081
214.853
227.634
235.482
238.932
239.44
239.131
239.249
240.152
241.876
244.022
246.221
248.242
249.616
249.734
248.292
245.26
240.83
235.427
229.425
223.02
216.362
209.582
202.742
195.904
189.118
182.351
175.577
168.817
162.09
155.434
148.879
142.389
135.893
129.308
122.545
115.554
108.336
100.918
93.345
85.672
77.944
70.214
62.54
54.976
47.539
40.195
32.886
25.602
18.386
11.331
4.557
-1.866
-7.794
-12.905
-16.961
-19.959
-22.026
-23.441
-23.82
-22.061
-17.789
-11.912
-8.038
-11.142
-24.058
-45.942
-69.822
-85.999
-86.727
-69.101
-39.241
-8.105
12.756
15.66
2.106
-20.401
-41.333
-52.361
-51.635
-41.956
-29.135
-17.731
-9.177
-3.086
2.208
7.436
12.05
15.604
17.734
18.184
17.186
14.105
7.198
-3.371
-16.329
-29.561
-38.85
-44.455
-50.749
-61.938
-83.994
-117.322
-155.98
-195.118
-229.491
-257.904
-284.312
-311.019
-339.786
-370.046
-398.893
-426.296
-452.401
-479.006
-508.668
-538.598
-566.563
-589.588
-603.915
-612.768
-618.922
-624.357
-632.297
-640.628
-647.279
-651.979
-653.594
-653.154
-651.858
-649.619
-646.677
-643.092
-638.829
-634.231
-629.538
-624.804
-620.096
-615.477
-611.013
-606.726
-602.582
-598.466
-594.227
-589.794
-585.151
-580.302
-575.264
-570.036
-564.594
-558.924
-553.054
-547.018
-540.843
-534.559
-528.176
-521.733
-515.301
-508.98
-502.882
-497.084
-491.636
-486.569
-481.908
-477.676
-473.887
-470.541
-467.614
-465.085
-462.94
-461.163
-459.743
-458.657
-457.871
-457.341
-457.024
-456.883
-456.883
-456.991
-457.173
-457.399
-457.644
-457.888
-458.119
-458.32
-458.47
-458.553
-458.548
-458.441
-458.216
-457.86
-457.359
-456.702
-455.882
-454.895
-453.74
-452.416
-450.924
-449.27
-447.456
-445.491
-443.38
-441.133
-438.756
-436.259
-433.652
-430.943
-428.143
-425.261
-422.305
-419.285
-416.21
-413.084
-409.914
-406.702
-403.45
-400.158
-396.829
-393.461
-390.054
-386.608
-383.121
-379.594
-376.029
-372.424
-368.779
-365.091
-361.356
-357.571
-353.733
-349.839
-345.884
-341.866
-337.784
-333.64
-329.436
-325.175
-320.863
-316.507
-312.115
-307.697
-303.262
-298.818
-294.371
-289.932
-285.51
-281.12
-276.777
-272.5
-268.301
-264.205
-260.246
-256.466
-252.901
-249.568
-246.461
-243.577
-240.939
-238.55
-236.363
-234.304
-232.312
-230.388
-228.615
-227.06
-225.68
-224.491
-223.713
-223.531
-223.972
-224.943
-226.104
-227.916
-231.871
-238.606
-247.224
-253.94
-253.192
-242.594
-224.778
-207.669
-200.469
-207.117
-224.449
-243.534
-255.748
-257.686
-251.439
-242.851
-236.441
-233.503
-233.231
-233.597
-233.58
-233.312
-232.988
-232.773
-232.505
-231.857
-230.737
-229.082
-226.728
-223.402
-218.672
-212.167
-203.799
-193.683
-182.161
-169.783
-156.959
-143.943
-131.055
-118.459
-106.096
-93.764
-80.322
-63.907
-43.188
-17.111
14.113
48.446
85.081
123.689
163.359
204.299
242.293
270.001
282.466
274.26
245.943
203.074
148.047
85.817
21.726
-39.524
-87.149
-111.64
-109.828
-80.904
-30.691
29.576
91.83
146.051
181.892
197.733
194.278
177.084
158.439
144.629
137.974
138.39
140.261
140.543
139.402
137.125
135.393
134.983
135.07
134.998
134.543
133.772
133.042
132.696
132.813
133.407
134.556
136.285
138.54
141.24
144.268
147.526
150.99
154.649
158.495
162.52
166.7
171.011
175.436
179.958
184.571
189.273
194.061
198.94
203.919
209.004
214.201
219.503
224.895
230.356
235.859
241.373
246.868
252.315
257.683
262.946
268.076
273.044
277.823
282.389
286.713
290.77
294.536
297.986
301.097
303.848
306.22
308.198
309.765
310.906
311.61
311.866
311.663
310.996
309.858
308.246
306.157
303.593
300.555
297.052
293.092
288.688
283.855
278.611
272.977
266.979
260.642
253.995
247.069
239.895
232.506
224.939
217.229
209.414
201.531
193.619
185.716
177.862
170.095
162.452
154.973
147.692
140.646
133.868
127.394
121.254
115.479
110.099
105.139
100.626
96.581
93.025
89.974
87.442
85.441
83.977
83.057
82.681
82.848
83.554
84.791
86.548
88.813
91.569
94.797
98.476
102.582
107.091
111.976
117.208
122.759
128.599
134.697
141.022
147.542
154.224
161.036
167.945
174.917
181.919
188.92
195.887
202.79
209.6
216.29
222.833
229.207
235.389
241.358
247.097
252.589
257.817
262.77
267.435
271.805
275.872
279.632
283.083
286.223
289.055
291.58
293.8
295.721
297.345
298.68
299.73
300.504
301.011
301.26
301.264
301.035
300.589
299.941
299.107
298.105
296.948
295.649
294.22
292.671
291.011
289.245
287.38
285.422
283.384
281.275
279.112
276.911
274.686
272.451
270.217
267.992
265.785
263.596
261.423
259.268
257.137
255.044
253.014
251.061
249.19
247.391
245.646
243.919
242.16
240.314
238.32
236.136
233.739
231.133
228.355
225.446
222.449
219.383
216.237
213.003
209.686
206.305
202.89
199.507
196.249
193.229
190.584
188.407
186.737
185.545
184.728
184.147
183.629
183.037
182.28
181.272
179.94
178.201
175.971
173.131
169.537
165.007
159.317
152.3
143.854
133.972
122.743
110.323
96.926
82.734
67.897
52.543
36.771
20.674
4.339
-12.134
-28.632
-45
-61.032
-76.56
-91.453
-105.653
-119.178
-132.096
-144.529
-156.574
-168.309
-179.788
-191.031
-202.043
-212.809
-223.312
-233.53
-243.478
-253.203
-262.747
-272.143
-281.392
-290.459
-299.286
-307.79
-315.886
-323.494
-330.546
-336.992
-342.806
-347.981
-352.514
-356.409
-359.647
-362.177
-363.96
-364.959
-365.143
-364.498
-363.029
-360.764
-357.773
-354.17
-350.064
-345.572
-340.783
-335.748
-330.531
-325.188
-319.792
-314.469
-309.292
-304.289
-299.499
-294.916
-290.503
-286.223
-281.887
-277.119
-271.668
-265.421
-258.37
-250.777
-242.865
-234.672
-226.378
-218.312
-210.475
-202.398
-193.259
-181.693
-166.239
-146.156
-120.952
-89.883
-53.998
-15.595
23.725
60.643
92.944
119.582
135.141
134.764
115.223
75.376
20.853
-42.823
-112.708
-186.954
-265.074
-340.668
-402.202
-440.545
-449.754
-432.046
-397.943
-355.352
-312.154
-275.629
-247.005
-229.359
-222.889
-222.453
-224.932
-225.911
-223.01
-218.238
-212.765
-207.842
-203.975
-199.884
-195.213
-190.333
-185.786
-182.529
-180.914
-180.74
-181.728
-183.49
-185.686
-188.038
-190.305
-192.31
-193.951
-195.188
-195.986
-196.33
-196.215
-195.644
-194.606
-193.089
-191.089
-188.62
-185.748
-182.561
-179.141
-175.581
-171.93
-168.205
-164.421
-160.58
-156.679
-152.709
-148.652
-144.478
-140.18
-135.761
-131.223
-126.569
-121.789
-116.866
-111.785
-106.532
-101.097
-95.477
-89.667
-83.667
-77.486
-71.132
-64.62
-57.967
-51.186
-44.287
-37.279
-30.173
-22.98
-15.712
-8.381
-1
6.416
13.85
21.284
28.697
36.072
43.39
50.634
57.786
64.831
71.754
78.542
85.182
91.663
97.973
104.104
110.046
115.791
121.331
126.662
131.778
136.678
141.36
145.825
150.073
154.107
157.931
161.549
164.967
168.192
171.232
174.094
176.79
179.328
181.722
183.984
186.128
188.167
190.115
191.985
193.79
195.543
197.255
198.937
200.599
202.25
203.897
205.548
207.209
208.884
210.578
212.293
214.03
215.791
217.572
219.374
221.191
223.021
224.857
226.693
228.522
230.336
232.125
233.879
235.588
237.241
238.826
240.33
241.741
243.045
244.231
245.286
246.197
246.951
247.539
247.948
248.168
248.189
248.001
247.596
246.966
246.102
244.998
243.647
242.044
240.182
238.058
235.668
233.007
230.075
226.868
223.385
219.625
215.588
211.274
206.685
201.82
196.684
191.278
185.605
179.67
173.476
167.03
160.336
153.401
146.232
138.835
131.22
123.395
115.37
107.154
98.76
90.2
81.487
72.634
63.658
54.574
45.398
36.149
26.845
17.504
8.147
-1.206
-10.534
-19.816
-29.031
-38.155
-47.166
-56.043
-64.761
-73.299
-81.633
-89.742
-97.605
-105.202
-112.511
-119.516
-126.197
-132.539
-138.528
-144.149
-149.391
-154.244
-158.699
-162.751
-166.396
-169.631
-172.458
-174.878
-176.895
-178.516
-179.748
-180.601
-181.085
-181.212
-180.996
-180.452
-179.596
-178.448
-177.026
-175.352
-173.448
-171.338
-169.044
-166.592
-164.004
-161.302
-158.51
-155.649
-152.741
-149.805
-146.861
-143.927
-141.019
-138.154
-135.346
-132.608
-129.95
-127.378
-124.901
-122.521
-120.243
-118.066
-115.991
-114.016
-112.14
-110.36
-108.671
-107.066
-105.54
-104.082
-102.681
-101.324
-99.993
-98.672
-97.342
-95.984
-94.578
-93.107
-91.557
-89.916
-88.179
-86.34
-84.395
-82.339
-80.16
-77.846
-75.387
-72.767
-69.965
-66.965
-63.751
-60.316
-56.671
-52.825
-48.777
-44.52
-40.023
-35.263
-30.233
-24.927
-19.345
-13.506
-7.44
-1.207
5.082
11.317
17.395
23.237
28.827
34.151
39.172
43.838
48.064
51.799
55.061
57.892
60.318
62.412
64.241
65.967
67.931
70.337
73.239
76.546
79.92
83.079
85.978
88.628
91.001
93.449
96.559
101.107
108.286
118.891
133.01
150.235
169.634
189.496
207.643
221.797
229.42
228.674
218.719
199.476
171.763
137.406
98.914
58.77
19.425
-17.225
-50.041
-78.326
-101.899
-121.247
-137.326
-150.884
-162.458
-172.321
-180.357
-186.411
-190.377
-191.996
-190.945
-187.159
-180.724
-171.878
-161.114
-148.926
-135.708
-121.864
-107.742
-93.622
-79.836
-66.651
-54.226
-42.691
-32.095
-22.432
-13.7
-5.837
1.293
7.835
13.984
19.96
25.893
31.871
37.965
44.209
50.675
57.432
64.492
71.847
79.471
87.333
95.409
103.669
112.029
120.395
128.663
136.717
144.49
151.941
159.034
165.75
172.075
177.996
183.526
188.691
193.506
197.981
202.124
205.941
209.453
212.691
215.684
218.464
221.057
223.485
225.772
227.938
229.997
231.963
233.843
235.642
237.369
239.036
240.654
242.236
243.791
245.328
246.856
248.381
249.907
251.434
252.961
254.482
255.993
257.489
258.964
260.41
261.822
263.192
264.515
265.784
266.992
268.133
269.201
270.19
271.094
271.909
272.631
273.257
273.786
274.218
274.552
274.789
274.932
274.982
274.942
274.816
274.61
274.328
273.977
273.565
273.102
272.597
272.062
271.509
270.95
270.398
269.866
269.364
268.904
268.496
268.148
267.869
267.663
267.535
267.489
267.526
267.644
267.842
268.116
268.459
268.864
269.323
269.825
270.358
270.908
271.462
272.004
272.518
272.985
273.388
273.707
273.923
274.015
273.961
273.741
273.333
272.717
271.874
270.783
269.428
267.792
265.86
263.622
261.065
258.184
254.972
251.427
247.549
243.338
238.801
233.945
228.777
223.31
217.556
211.532
205.254
198.74
192.01
185.085
177.987
170.739
163.365
155.887
148.332
140.723
133.084
125.441
117.816
110.234
102.714
95.279
87.947
80.734
73.656
66.724
59.947
53.333
46.886
40.607
34.495
28.548
22.759
17.121
11.624
6.256
1.003
-4.152
-9.224
-14.232
-19.194
-24.13
-29.059
-34.001
-38.975
-43.998
-49.088
-54.263
-59.54
-64.934
-70.459
-76.128
-81.95
-87.935
-94.089
-100.413
-106.907
-113.565
-120.382
-127.346
-134.443
-141.657
-148.968
-156.353
-163.788
-171.248
-178.702
-186.118
-193.462
-200.696
-207.783
-214.683
-221.358
-227.769
-233.877
-239.645
-245.038
-250.022
-254.565
-258.635
-262.201
-265.232
-267.702
-269.587
-270.864
-271.514
-271.522
-270.879
-269.58
-267.628
-265.026
-261.783
-257.913
-253.435
-248.371
-242.742
-236.575
-229.897
-222.741
-215.146
-207.154
-198.805
-190.149
-181.237
-172.126
-162.878
-153.552
-144.201
-134.877
-125.628
-116.503
-107.554
-98.828
-90.364
-82.208
-74.408
-67.029
-60.154
-53.842
-48.123
-43.008
-38.491
-34.563
-31.224
-28.451
-26.196
-24.435
-23.16
-22.404
-22.254
-22.75
-23.888
-25.627
-27.863
-30.531
-33.63
-37.161
-41.143
-45.619
-50.622
-56.273
-62.784
-70.275
-78.784
-88.222
-98.347
-108.996
-120.07
-131.502
-143.316
-155.465
-167.797
-180.204
-192.556
-204.645
-216.31
-227.195
-236.698
-244.496
-250.472
-254.746
-257.91
-260.405
-262.271
-263.614
-264.487
-264.601
-263.711
-261.234
-255.953
-247.169
-235.002
-219.962
-203.178
-186.248
-170.604
-158.002
-150.761
-150.612
-158.301
-173.883
-196.71
-225.64
-259.352
-296.015
-332.99
-367.72
-398.431
-423.935
-443.272
-455.609
-460.562
-458.477
-450.786
-439.51
-426.158
-411.773
-397.461
-384.507
-373.857
-365.894
-360.168
-355.507
-351.122
-346.738
-342.139
-337.099
-331.523
-325.451
-319.223
-313.538
-308.832
-305.162
-302.452
-300.452
-298.896
-297.646
-296.551
-295.404
-294.102
-292.609
-290.917
-289.107
-287.221
-285.207
-283.018
-280.598
-277.896
-274.926
-271.733
-268.379
-264.96
-261.564
-258.246
-255.049
-251.993
-249.07
-246.268
-243.553
-240.886
-238.247
-235.631
-233.04
-230.484
-227.961
-225.461
-222.972
-220.475
-217.947
-215.369
-212.725
-210
-207.188
-204.284
-201.291
-198.219
-195.075
-191.865
-188.592
-185.259
-181.866
-178.418
-174.916
-171.365
-167.767
-164.129
-160.46
-156.772
-153.078
-149.391
-145.726
-142.101
-138.529
-135.029
-131.617
-128.31
-125.125
-122.079
-119.188
-116.47
-113.941
-111.619
-109.519
-107.657
-106.047
-104.701
-103.63
-102.844
-102.35
-102.155
-102.264
-102.682
-103.414
-104.46
-105.823
-107.504
-109.502
-111.814
-114.435
-117.358
-120.576
-124.077
-127.851
-131.881
-136.155
-140.653
-145.359
-150.253
-155.314
-160.519
-165.848
-171.275
-176.778
-182.333
-187.916
-193.504
-199.074
-204.604
-210.072
-215.46
-220.747
-225.914
-230.945
-235.822
-240.531
-245.056
-249.385
-253.504
-257.404
-261.075
-264.509
-267.701
-270.644
-273.338
-275.781
-277.975
-279.923
-281.629
-283.101
-284.347
-285.378
-286.205
-286.841
-287.3
-287.597
-287.748
-287.767
-287.672
-287.478
-287.2
-286.856
-286.459
-286.025
-285.568
-285.103
-284.643
-284.202
-283.791
-283.424
-283.111
-282.864
-282.691
-282.603
-282.606
-282.707
-282.913
-283.227
-283.651
-284.187
-284.836
-285.595
-286.462
-287.434
-288.504
-289.669
-290.923
-292.258
-293.667
-295.145
-296.683
-298.275
-299.914
-301.593
-303.306
-305.045
-306.805
-308.58
-310.362
-312.145
-313.923
-315.69
-317.437
-319.16
-320.85
-322.5
-324.105
-325.657
-327.15
-328.578
-329.935
-331.216
-332.415
-333.527
-334.547
-335.469
-336.286
-336.992
-337.579
-338.037
-338.358
-338.531
-338.545
-338.389
-338.05
-337.514
-336.769
-335.801
-334.595
-333.14
-331.42
-329.424
-327.138
-324.552
-321.655
-318.439
-314.895
-311.017
-306.8
-302.24
-297.335
-292.084
-286.486
-280.543
-274.259
-267.639
-260.692
-253.428
-245.863
-238.014
-229.907
-221.568
-213.025
-204.31
-195.459
-186.509
-177.497
-168.462
-159.443
-150.481
-141.623
-132.916
-124.408
-116.152
-108.198
-100.6
-93.411
-86.683
-80.466
-74.806
-69.742
-65.319
-61.58
-58.573
-56.35
-54.948
-54.388
-54.682
-55.832
-57.822
-60.625
-64.185
-68.428
-73.283
-78.682
-84.563
-90.869
-97.528
-104.468
-111.615
-118.879
-126.206
-133.569
-140.953
-148.365
-155.83
-163.379
-171.076
-179.014
-187.25
-195.798
-204.64
-213.728
-223.012
-232.423
-241.884
-251.284
-260.405
-268.952
-276.594
-282.932
-287.616
-290.303
-290.48
-287.68
-281.661
-272.365
-259.9
-244.34
-225.397
-202.699
-176.341
-146.511
-113.052
-75.48
-33.184
14.312
65.823
118.674
172.461
227.8
286.02
351.06
421.195
489.392
550.288
595.531
622.649
640.281
654.549
673.565
703.639
739.507
777.987
816.968
854.208
895.392
945.763
1006.914
1078.507
1156.389
1237
1321.627
1413.096
1511.166
1609.508
1694.18
1751.572
1776.116
1770.955
1747.011
1715.273
1680.849
1644.454
1604.273
1559.074
1510.146
1460.923
1415.223
1375.356
1342.894
1317.825
1298.166
1282.568
1269.705
1257.545
1245.216
1232.044
1216.611
1198.503
1178.089
1155.453
1131.331
1106.794
1082
1057.169
1032.854
1009.117
986.007
963.626
941.564
919.316
896.694
873.488
849.59
825.103
800.043
774.514
748.796
723.22
698.161
673.911
650.609
628.326
607.095
586.936
567.892
549.981
533.186
517.535
503.05
489.747
477.662
466.773
457.019
448.319
440.546
433.579
427.339
421.752
416.758
412.313
408.366
404.874
401.819
399.165
396.865
394.874
393.133
391.591
390.214
388.968
387.827
386.769
385.771
384.81
383.865
382.913
381.931
380.897
379.784
378.568
377.234
375.768
374.162
372.415
370.521
368.483
366.305
363.993
361.556
359.003
356.341
353.584
350.742
347.831
344.864
341.858
338.827
335.789
332.761
329.759
326.802
323.905
321.085
318.356
315.732
313.226
310.848
308.61
306.519
304.584
302.81
301.204
299.767
298.5
297.403
296.473
295.703
295.087
294.613
294.271
294.047
293.928
293.898
293.941
294.04
294.176
294.332
294.488
294.624
294.719
294.753
294.705
294.554
294.279
293.86
293.276
292.509
291.539
290.348
288.918
287.234
285.28
283.042
280.507
277.665
274.505
271.019
267.203
263.051
258.561
253.733
248.566
243.064
237.23
231.069
224.586
217.79
210.688
203.288
195.602
187.638
179.41
170.929
162.207
153.259
144.099
134.742
125.201
115.494
105.636
95.644
85.533
75.322
65.026
54.663
44.249
33.8
23.334
12.865
2.409
-8.018
-18.403
-28.732
-38.99
-49.164
-59.24
-69.204
-79.043
-88.742
-98.286
-107.662
-116.854
-125.849
-134.63
-143.185
-151.498
-159.556
-167.343
-174.847
-182.053
-188.95
-195.524
-201.762
-207.653
-213.187
-218.354
-223.144
-227.549
-231.56
-235.172
-238.376
-241.166
-243.536
-245.48
-246.992
-248.07
-248.709
-248.91
-248.673
-248.001
-246.898
-245.372
-243.431
-241.085
-238.346
-235.224
-231.735
-227.893
-223.715
-219.219
-214.424
-209.35
-204.019
-198.453
-192.678
-186.715
-180.589
-174.322
-167.938
-161.459
-154.911
-148.317
-141.702
-135.09
-128.509
-121.984
-115.544
-109.213
-103.015
-96.972
-91.105
-85.432
-79.967
-74.722
-69.708
-64.934
-60.408
-56.139
-52.133
-48.398
-44.942
-41.777
-38.912
-36.356
-34.111
-32.174
-30.537
-29.193
-28.129
-27.326
-26.765
-26.421
-26.279
-26.338
-26.585
-27
-27.55
-28.177
-28.83
-29.471
-30.062
-30.577
-31.005
-31.345
-31.637
-31.963
-32.402
-33.037
-33.912
-35.005
-36.315
-37.854
-39.643
-41.758
-44.229
-47.021
-50.135
-53.545
-57.188
-61.016
-64.823
-68.254
-71.101
-73.257
-74.809
-76.143
-77.527
-79.056
-80.974
-83.413
-86.141
-88.676
-89.937
-88.403
-83.023
-73.157
-58.385
-39.015
-16.161
8.333
31.457
49.798
60.498
61.059
50.286
28.663
-2.835
-42.826
-90.973
-148.101
-212.415
-278.197
-335.587
-374.117
-389.043
-383.123
-365.702
-346.394
-330.569
-319.371
-310.176
-301.292
-293.318
-287.465
-285.155
-286.588
-290.53
-295.452
-300.269
-304.243
-307.035
-308.665
-309.303
-309.326
-309.322
-309.901
-311.329
-313.642
-316.717
-320.245
-324.03
-327.932
-331.784
-335.482
-339.007
-342.393
-345.722
-349.093
-352.513
-355.93
-359.294
-362.54
-365.64
-368.602
-371.468
-374.328
-377.296
-380.477
-383.936
-387.684
-391.68
-395.861
-400.184
-404.633
-409.218
-413.943
-418.815
-423.866
-429.161
-434.781
-440.737
-446.947
-453.24
-459.44
-465.433
-471.151
-476.566
-481.639
-486.298
-490.456
-494.037
-497.001
-499.294
-500.825
-501.437
-500.95
-499.285
-496.49
-492.724
-488.138
-482.824
-476.839
-470.222
-463.05
-455.419
-447.416
-439.09
-430.468
-421.609
-412.618
-403.667
-394.938
-386.533
-378.456
-370.638
-363.023
-355.602
-348.386
-341.384
-334.576
-327.944
-321.503
-315.304
-309.407
-303.838
-298.588
-293.61
-288.856
-284.314
-280.011
-275.995
-272.302
-268.947
-265.938
-263.288
-261.019
-259.137
-257.623
-256.432
-255.518
-254.848
-254.401
-254.161
-254.111
-254.221
-254.457
-254.785
-255.172
-255.587
-255.999
-256.371
-256.666
-256.855
-256.915
-256.834
-256.598
-256.193
-255.605
-254.823
-253.842
-252.656
-251.261
-249.654
-247.833
-245.802
-243.567
-241.138
-238.527
-235.745
-232.809
-229.734
-226.54
-223.245
-219.868
-216.429
-212.948
-209.445
-205.94
-202.452
-199
-195.601
-192.272
-189.03
-185.888
-182.859
-179.954
-177.181
-174.549
-172.062
-169.724
-167.535
-165.495
-163.6
-161.847
-160.229
-158.739
-157.367
-156.103
-154.933
-153.844
-152.82
-151.844
-150.9
-149.97
-149.035
-148.076
-147.076
-146.017
-144.881
-143.652
-142.312
-140.847
-139.241
-137.483
-135.56
-133.46
-131.174
-128.694
-126.014
-123.128
-120.033
-116.726
-113.208
-109.478
-105.539
-101.394
-97.046
-92.501
-87.764
-82.843
-77.745
-72.478
-67.053
-61.478
-55.765
-49.924
-43.967
-37.903
-31.744
-25.501
-19.182
-12.797
-6.355
0.134
6.662
13.222
19.806
26.408
33.021
39.64
46.262
52.881
59.496
66.104
72.702
79.288
85.859
92.412
98.943
105.447
111.92
118.357
124.752
131.1
137.398
143.639
149.819
155.934
161.976
167.94
173.818
179.601
185.279
190.844
196.287
201.599
206.771
211.796
216.664
221.367
225.898
230.25
234.412
238.374
242.124
245.652
248.955
252.03
254.876
257.494
259.884
262.051
264.003
265.75
267.302
268.661
269.828
270.806
271.601
272.22
272.673
272.962
273.084
273.038
272.828
272.469
271.982
271.386
270.693
269.921
269.086
268.217
267.345
266.489
265.675
264.92
264.244
263.697
263.342
263.246
263.475
264.045
264.894
265.923
267.031
268.139
269.235
270.244
271.011
271.484
271.739
272.07
272.81
273.992
275.303
276.365
277.013
277.139
276.526
274.422
269.85
262.351
252.126
239.993
226.597
212.232
197.434
183.679
173.08
167.559
168.367
175.405
188.402
207.483
231.981
259.822
287.815
312.227
329.43
337.241
334.203
318.558
290.564
252.97
208.306
159.574
109.115
56.355
4.628
-39.128
-69.029
-78.54
-68.377
-46.689
-20.98
0.951
16.017
26.538
33.693
38.49
41.314
41.158
38.592
35.256
32.267
30.671
31.015
33.198
37.125
42.631
49.235
56.301
63.369
70.141
76.535
82.743
88.958
95.294
101.905
108.943
116.516
124.733
133.613
143.05
152.885
162.926
172.982
182.873
192.484
201.728
210.495
218.652
226.037
232.503
237.89
242.025
244.702
245.677
244.775
241.913
237.117
230.499
222.223
212.503
201.521
189.433
176.389
162.513
147.932
132.766
117.154
101.251
85.259
69.427
53.97
39.061
24.803
11.231
-1.674
-13.979
-25.741
-36.997
-47.766
-58.031
-67.764
-76.924
-85.469
-93.354
-100.568
-107.132
-113.066
-118.388
-123.094
-127.152
-130.512
-133.104
-134.866
-135.748
-135.716
-134.761
-132.888
-130.12
-126.496
-122.068
-116.885
-110.986
-104.414
-97.206
-89.41
-81.082
-72.282
-63.077
-53.534
-43.725
-33.716
-23.573
-13.358
-3.128
7.069
17.186
27.178
37.003
46.617
55.979
65.05
73.794
82.176
90.169
97.745
104.885
111.575
117.804
123.567
128.863
133.696
138.07
141.997
145.488
148.56
151.234
153.532
155.48
157.104
158.434
159.502
160.339
160.979
161.456
161.803
162.051
162.235
162.387
162.539
162.721
162.962
163.29
163.733
164.315
165.059
165.983
167.103
168.431
169.977
171.747
173.742
175.959
178.393
181.041
183.897
186.95
190.187
193.592
197.147
200.835
204.633
208.513
212.44
216.379
220.298
224.165
227.952
231.627
235.156
238.508
241.656
244.58
247.255
249.648
251.715
253.41
254.706
255.602
256.113
256.244
255.999
255.385
254.423
253.151
251.591
249.734
247.539
244.958
241.979
238.619
234.93
230.963
226.736
222.231
217.425
212.318
206.916
201.208
195.14
188.637
181.686
174.365
166.837
159.263
151.748
144.353
137.101
130.033
123.226
116.777
110.768
105.249
100.277
95.95
92.427
89.889
88.422
87.986
88.431
89.615
91.455
93.908
96.945
100.506
104.506
108.872
113.565
118.57
123.846
129.301
134.778
140.108
145.2
150.062
154.777
159.41
163.973
168.462
172.871
177.222
181.541
185.816
189.994
194.017
197.854
201.514
205.049
208.5
211.861
215.087
218.102
220.864
223.377
225.638
227.628
229.329
230.728
231.854
232.777
233.536
234.121
234.514
234.677
234.61
234.365
233.984
233.516
232.977
232.336
231.597
230.798
229.949
229.044
228.052
226.895
225.591
224.257
222.99
221.898
221.038
220.399
220.002
219.884
220.092
220.708
221.771
223.272
225.253
227.788
230.96
234.902
239.621
244.985
250.89
257.231
263.928
270.969
278.299
285.818
293.449
301.101
308.702
316.213
323.546
330.573
337.15
343.087
348.256
352.607
356.099
358.725
360.492
361.397
361.434
360.556
358.751
356.081
352.501
347.909
342.075
334.541
325.147
314.133
301.721
288.165
273.913
259.301
245.067
232.676
222.863
215.626
210.817
207.601
204.838
201.758
196.878
187.636
172.511
150.712
121.64
86.179
45.745
1.417
-44.693
-89.391
-130.53
-166.375
-195.209
-216.997
-232.359
-241.842
-247.167
-250.833
-254.484
-259.617
-267.821
-279.488
-294.563
-312.901
-333.423
-354.669
-375.759
-395.9
-414.296
-430.706
-445.005
-457.122
-467.46
-476.538
-484.614
-491.879
-498.461
-504.334
-509.541
-514.155
-518.144
-521.48
-524.194
-526.347
-528.052
-529.45
-530.643
-531.702
-532.696
-533.683
-534.727
-535.895
-537.242
-538.819
-540.671
-542.842
-545.373
-548.302
-551.661
-555.474
-559.755
-564.521
-569.785
-575.56
-581.86
-588.694
-596.067
-603.973
-612.406
-621.352
-630.793
-640.709
-651.073
-661.855
-673.021
-684.536
-696.361
-708.457
-720.781
-733.286
-745.927
-758.655
-771.422
-784.181
-796.884
-809.486
-821.942
-834.207
-846.241
-858.004
-869.46
-880.574
-891.314
-901.652
-911.563
-921.025
-930.02
-938.533
-946.555
-954.078
-961.099
-967.618
-973.642
-979.178
-984.238
-988.838
-992.996
-996.736
-1000.081
-1003.059
-1005.7
-1008.036
-1010.099
-1011.924
-1013.546
-1015
-1016.323
-1017.549
-1018.712
-1019.847
-1020.983
-1022.152
-1023.379
-1024.691
-1026.108
-1027.649
-1029.329
-1031.16
-1033.15
-1035.302
-1037.616
-1040.086
-1042.705
-1045.46
-1048.332
-1051.302
-1054.342
-1057.425
-1060.516
-1063.58
-1066.576
-1069.461
-1072.19
-1074.713
-1076.982
-1078.943
-1080.544
-1081.73
-1082.447
-1082.641
-1082.258
-1081.244
-1079.55
-1077.125
-1073.922
-1069.899
-1065.014
-1059.231
-1052.516
-1044.841
-1036.181
-1026.518
-1015.838
-1004.13
-991.393
-977.626
-962.836
-947.037
-930.245
-912.483
-893.779
-874.164
-853.676
-832.357
-810.253
-787.412
-763.889
-739.74
-715.026
-689.808
-664.152
-638.123
-611.789
-585.219
-558.482
-531.646
-504.782
-477.958
-451.239
-424.693
-398.382
-372.37
-346.716
-321.476
-296.706
-272.456
-248.773
-225.704
-203.289
-181.567
-160.573
-140.339
-120.895
-102.265
-84.474
-67.54
-51.482
-36.311
-22.041
-8.679
3.768
15.297
25.906
35.596
44.367
52.224
59.171
65.215
70.364
74.628
78.018
80.547
82.226
83.072
83.099
82.325
80.764
78.435
75.355
71.544
67.025
61.818
55.948
49.44
42.323
34.628
26.386
17.629
8.392
-1.29
-11.381
-21.842
-32.633
-43.712
-55.038
-66.566
-78.247
-90.034
-101.876
-113.725
-125.532
-137.248
-148.824
-160.212
-171.366
-182.24
-192.789
-202.967
-212.731
-222.037
-230.842
-239.109
-246.804
-253.896
-260.355
-266.161
-271.297
-275.753
-279.522
-282.6
-284.984
-286.674
-287.677
-288
-287.654
-286.648
-284.998
-282.727
-279.866
-276.455
-272.532
-268.141
-263.328
-258.141
-252.634
-246.857
-240.851
-234.65
-228.296
-221.831
-215.312
-208.808
-202.376
-196.059
-189.901
-183.941
-178.206
-172.706
-167.416
-162.276
-157.229
-152.237
-147.294
-142.417
-137.615
-132.905
-128.307
-123.83
-119.509
-115.377
-111.427
-107.645
-104.051
-100.697
-97.709
-95.289
-93.604
-92.792
-92.956
-94.135
-96.353
-99.549
-103.591
-108.318
-113.532
-119.082
-124.875
-130.795
-136.638
-142.153
-147.003
-150.793
-153.163
-153.682
-152.038
-148.115
-141.94
-133.868
-124.376
-113.808
-102.496
-90.704
-78.107
-64.128
-48.172
-29.159
-6.236
20.944
52.553
88.067
125.64
162.95
197.688
226.916
247.968
258.584
256.692
242.476
218.744
188.359
153.469
114.032
68.38
18.629
-28.862
-64.269
-77.995
-67.48
-37.572
1.1
37.439
65.125
83.144
94.832
103.435
109.991
114.163
114.875
112.448
108.785
105.633
104.109
104.625
106.975
110.94
116.415
123.047
130.273
137.727
145.281
152.99
161.078
169.72
178.962
188.853
199.451
210.742
222.681
235.193
248.146
261.435
274.997
288.781
302.757
316.896
331.146
345.452
359.762
374.024
388.193
402.234
416.113
429.8
443.274
456.517
469.515
482.253
494.711
506.863
518.682
530.145
541.235
551.937
562.241
572.139
581.625
590.704
599.38
607.664
615.569
623.107
630.297
637.157
643.711
649.982
655.997
661.78
667.359
672.765
678.027
683.175
688.24
693.253
698.243
703.243
708.28
713.383
718.58
723.897
729.359
734.991
740.816
746.855
753.127
759.648
766.433
773.495
780.841
788.477
796.405
804.624
813.13
821.915
830.97
840.283
849.839
859.621
869.609
879.783
890.12
900.597
911.186
921.862
932.597
943.362
954.13
964.87
975.555
986.155
996.643
1006.99
1017.171
1027.16
1036.932
1046.464
1055.737
1064.732
1073.431
1081.823
1089.896
1097.643
1105.059
1112.143
1118.897
1125.328
1131.444
1137.257
1142.783
1148.04
1153.049
1157.836
1162.427
1166.85
1171.137
1175.323
1179.44
1183.527
1187.62
1191.759
1195.983
1200.33
1204.842
1209.557
1214.514
1219.752
1225.307
1231.215
1237.51
1244.221
1251.379
1259.01
1267.135
1275.774
1284.942
1294.652
1304.91
1315.72
1327.082
1338.989
1351.432
1364.397
1377.867
1391.818
1406.225
1421.056
1436.278
1451.852
1467.737
1483.887
1500.254
1516.788
1533.434
1550.135
1566.834
1583.469
1599.978
1616.298
1632.363
1648.109
1663.469
1678.379
1692.773
1706.586
1719.756
1732.221
1743.922
1754.801
1764.802
1773.875
1781.969
1789.037
1795.037
1799.929
1803.676
1806.246
1807.609
1807.741
1806.62
1804.228
1800.552
1795.583
1789.315
1781.747
1772.88
1762.723
1751.286
1738.583
1724.634
1709.459
1693.085
1675.541
1656.859
1637.074
1616.226
1594.352
1571.497
1547.705
1523.022
1497.495
1471.173
1444.104
1416.338
1387.925
1358.914
1329.358
1299.307
1268.809
1237.915
1206.675
1175.137
1143.35
1111.359
1079.21
1046.946
1014.61
982.241
949.88
917.56
885.316
853.181
821.184
789.357
757.725
726.314
695.146
664.239
633.616
603.293
573.284
543.604
514.268
485.29
456.689
428.481
400.68
373.299
346.352
319.853
293.812
268.238
243.135
218.507
194.363
170.715
147.575
124.956
102.867
81.318
60.325
39.902
20.069
0.835
-17.795
-35.813
-53.199
-69.928
-85.959
-101.269
-115.856
-129.72
-142.861
-155.286
-167.002
-178.041
-188.463
-198.314
-207.635
-216.458
-224.803
-232.713
-240.25
-247.481
-254.469
-261.246
-267.8
-274.099
-280.12
-285.821
-291.151
-296.044
-300.373
-304.037
-306.952
-309.023
-310.159
-310.273
-309.251
-306.938
-303.358
-298.702
-293.295
-287.716
-282.523
-278.108
-274.87
-273.213
-273.086
-274.089
-275.666
-276.747
-276.419
-274.279
-270.132
-264.303
-258.208
-253.834
-253.22
-258.877
-273.277
-298.557
-336.243
-386.63
-447.441
-514.363
-584.481
-655.26
-724.995
-793.795
-857.159
-908.1
-941.37
-951.017
-938.2
-911.289
-877.867
-846.884
-822.952
-803.995
-788.785
-776.053
-765.196
-757.789
-753.782
-751.515
-749.668
-747.196
-743.673
-739.531
-735.235
-731.037
-727.49
-725.29
-724.75
-725.865
-728.345
-731.576
-735.026
-738.385
-741.34
-743.617
-745.056
-745.535
-745.025
-743.567
-741.166
-737.762
-733.244
-727.53
-720.643
-712.697
-703.9
-694.531
-684.839
-675.017
-665.245
-655.648
-646.317
-637.331
-628.716
-620.476
-612.631
-605.239
-598.397
-592.206
-586.719
-581.949
-577.865
-574.404
-571.517
-569.164
-567.294
-565.872
-564.878
-564.297
-564.144
-564.445
-565.21
-566.431
-568.086
-570.143
-572.576
-575.365
-578.49
-581.935
-585.68
-589.704
-593.996
-598.541
-603.319
-608.307
-613.472
-618.779
-624.198
-629.698
-635.253
-640.835
-646.422
-651.991
-657.525
-663.01
-668.432
-673.778
-679.035
-684.19
-689.234
-694.158
-698.955
-703.618
-708.144
-712.529
-716.771
-720.87
-724.828
-728.646
-732.324
-735.866
-739.273
-742.548
-745.691
-748.704
-751.588
-754.342
-756.967
-759.463
-761.829
-764.064
-766.165
-768.129
-769.953
-771.631
-773.156
-774.52
-775.714
-776.73
-777.557
-778.187
-778.608
-778.812
-778.787
-778.524
-778.013
-777.244
-776.209
-774.897
-773.301
-771.413
-769.229
-766.742
-763.95
-760.85
-757.442
-753.726
-749.704
-745.38
-740.759
-735.845
-730.647
-725.173
-719.433
-713.439
-707.202
-700.736
-694.056
-687.176
-680.112
-672.88
-665.496
-657.977
-650.337
-642.594
-634.763
-626.86
-618.899
-610.895
-602.861
-594.81
-586.754
-578.703
-570.667
-562.654
-554.671
-546.726
-538.822
-530.965
-523.159
-515.405
-507.707
-500.066
-492.483
-484.959
-477.495
-470.089
-462.744
-455.459
-448.235
-441.073
-433.975
-426.944
-419.981
-413.092
-406.281
-399.553
-392.914
-386.372
-379.935
-373.612
-367.413
-361.349
-355.431
-349.673
-344.087
-338.689
-333.491
-328.508
-323.756
-319.249
-315.001
-311.026
-307.337
-303.948
-300.869
-298.113
-295.688
-293.602
-291.861
-290.471
-289.434
-288.751
-288.423
-288.447
-288.819
-289.534
-290.585
-291.965
-293.665
-295.672
-297.976
-300.562
-303.415
-306.521
-309.863
-313.423
-317.182
-321.123
-325.227
-329.478
-333.854
-338.34
-342.915
-347.563
-352.268
-357.015
-361.788
-366.571
-371.352
-376.121
-380.87
-385.59
-390.275
-394.919
-399.516
-404.064
-408.558
-412.994
-417.364
-421.66
-425.88
-430.018
-434.074
-438.043
-441.921
-445.707
-449.403
-453.008
-456.521
-459.941
-463.26
-466.473
-469.579
-472.573
-475.444
-478.18
-480.765
-483.183
-485.424
-487.471
-489.297
-490.87
-492.147
-493.096
-493.694
-493.915
-493.734
-493.132
-492.099
-490.65
-488.83
-486.682
-484.243
-481.551
-478.633
-475.533
-472.32
-469.034
-465.698
-462.327
-458.91
-455.46
-452.026
-448.581
-445.028
-441.234
-436.98
-432.061
-426.34
-419.579
-411.473
-401.859
-390.708
-378.198
-364.789
-350.872
-336.623
-322.35
-308.445
-294.896
-281.409
-267.242
-251.067
-231.906
-209.411
-183.2
-153.042
-119.875
-85.381
-52.029
-23.572
-3.342
6.162
2.136
-16.97
-49.957
-94.885
-149.437
-211.839
-281.924
-357.271
-430.499
-489.924
-524.834
-530.359
-509.334
-472.247
-429.45
-387.132
-348.214
-311.364
-275.141
-240.277
-207.817
-178.944
-154.054
-132.028
-111.117
-90.07
-68.337
-45.792
-22.727
0.417
23.24
45.111
65.278
83.384
99.373
113.339
125.548
136.227
145.564
153.874
161.536
168.818
175.869
182.739
189.407
195.882
202.206
208.393
214.414
220.208
225.708
230.866
235.659
240.052
243.989
247.394
250.182
252.308
253.762
254.554
254.7
254.218
253.126
251.465
249.288
246.652
243.601
240.173
236.401
232.323
227.987
223.437
218.718
213.863
208.9
203.856
198.756
193.622
188.47
183.313
178.158
173.017
167.901
162.826
157.803
152.843
147.958
143.157
138.454
133.857
129.377
125.021
120.796
116.713
112.781
109.011
105.412
101.998
98.78
95.771
92.986
90.439
88.143
86.114
84.366
82.916
81.779
80.97
80.503
80.393
80.653
81.296
82.332
83.772
85.623
87.891
90.578
93.688
97.219
101.168
105.527
110.289
115.443
120.975
126.868
133.105
139.664
146.52
153.648
161.019
168.602
176.364
184.27
192.284
200.37
208.487
216.599
224.664
232.644
240.498
248.189
255.677
262.927
269.901
276.566
282.89
288.844
294.401
299.536
304.228
308.46
312.217
315.487
318.262
320.538
322.315
323.593
324.379
324.682
324.512
323.885
322.819
321.331
319.446
317.186
314.578
311.648
308.425
304.938
301.217
297.292
293.194
288.953
284.599
280.161
275.668
271.148
266.627
262.129
257.677
253.294
248.997
244.804
240.731
236.79
232.992
229.346
225.859
222.536
219.38
216.391
213.57
210.914
208.421
206.086
203.903
201.867
199.971
198.208
196.572
195.055
193.649
192.349
191.146
190.035
189.009
188.063
187.191
186.39
185.655
184.982
184.371
183.818
183.322
182.882
182.498
182.17
181.896
181.679
181.518
181.413
181.364
181.374
181.441
181.565
181.746
181.983
182.273
182.614
183.001
183.428
183.89
184.378
184.884
185.399
185.911
186.408
186.879
187.31
187.686
187.993
188.216
188.338
188.343
188.216
187.942
187.509
186.903
186.112
185.127
183.94
182.543
180.932
179.101
177.047
174.769
172.267
169.544
166.604
163.456
160.108
156.572
152.864
148.999
144.997
140.877
136.661
132.37
128.032
123.674
119.326
115.017
110.777
106.635
102.619
98.759
95.08
91.609
88.371
85.39
82.688
80.289
78.214
76.481
75.106
74.098
73.468
73.229
73.397
73.992
75.035
76.549
78.542
81.017
83.97
87.386
91.244
95.508
100.129
105.051
110.227
115.621
121.19
126.885
132.617
138.264
143.7
148.818
153.55
157.869
161.761
165.193
168.178
170.837
173.21
175.268
176.846
177.572
177.125
175.377
172.326
168.031
162.999
158.061
154.192
152.814
155.16
161.916
173.382
189.3
208.287
228.205
246.807
261.178
268.648
267.393
256.024
234.193
203.207
165.492
123.78
81.667
42.777
9.931
-14.278
-28.268
-32.007
-26.578
-13.619
4.335
24.375
44.163
61.498
74.775
83.411
87.53
87.685
85.045
81.167
77.145
73.868
71.933
71.38
72.046
73.699
75.853
77.904
79.551
80.651
81.207
81.478
81.634
81.766
82.01
82.457
83.131
84.049
85.178
86.446
87.855
89.426
91.172
93.132
95.298
97.627
100.069
102.537
104.951
107.265
109.44
111.455
113.31
115.003
116.542
117.949
119.23
120.378
121.382
122.223
122.886
123.373
123.686
123.835
123.833
123.686
123.399
122.978
122.421
121.724
120.883
119.884
118.718
117.38
115.867
114.181
112.322
110.291
108.09
105.722
103.19
100.497
97.645
94.635
91.471
88.155
84.692
81.087
77.347
73.479
69.49
65.389
61.186
56.892
52.517
48.071
43.567
39.015
34.428
29.817
25.196
20.577
15.972
11.395
6.861
2.381
-2.03
-6.36
-10.597
-14.73
-18.746
-22.636
-26.388
-29.994
-33.443
-36.727
-39.836
-42.763
-45.501
-48.043
-50.384
-52.52
-54.448
-56.165
-57.67
-58.963
-60.043
-60.911
-61.57
-62.021
-62.267
-62.312
-62.158
-61.81
-61.273
-60.551
-59.65
-58.576
-57.334
-55.93
-54.371
-52.662
-50.812
-48.826
-46.711
-44.474
-42.123
-39.664
-37.104
-34.45
-31.709
-28.888
-25.993
-23.031
-20.007
-16.928
-13.799
-10.626
-7.415
-4.172
-0.901
2.39
5.695
9.008
12.322
15.629
18.922
22.193
25.432
28.631
31.779
34.867
37.883
40.816
43.654
46.385
48.994
51.469
53.795
55.958
57.942
59.732
61.313
62.667
63.777
64.628
65.202
65.482
65.45
65.091
64.387
63.324
61.886
60.06
57.833
55.193
52.13
48.635
44.7
40.321
35.493
30.215
24.486
18.309
11.689
4.632
-2.852
-10.752
-19.055
-27.745
-36.802
-46.208
-55.94
-65.973
-76.28
-86.832
-97.599
-108.547
-119.642
-130.849
-142.131
-153.451
-164.772
-176.057
-187.27
-198.375
-209.337
-220.122
-230.697
-241.029
-251.09
-260.85
-270.284
-279.366
-288.075
-296.392
-304.301
-311.789
-318.846
-325.463
-331.636
-337.363
-342.646
-347.487
-351.895
-355.877
-359.447
-362.621
-365.419
-367.861
-369.971
-371.773
-373.295
-374.561
-375.6
-376.435
-377.09
-377.586
-377.947
-378.196
-378.352
-378.437
-378.466
-378.461
-378.443
-378.434
-378.45
-378.506
-378.611
-378.773
-379
-379.29
-379.634
-380.018
-380.42
-380.819
-381.201
-381.545
-381.825
-382.002
-382.017
-381.818
-381.362
-380.603
-379.497
-378.006
-376.098
-373.779
-371.094
-368.092
-364.823
-361.329
-357.633
-353.769
-349.768
-345.667
-341.511
-337.334
-333.168
-329.027
-324.9
-320.742
-316.447
-311.83
-306.674
-300.708
-293.592
-285.154
-275.388
-264.398
-252.535
-240.085
-227.096
-213.803
-200.561
-187.228
-173.275
-157.724
-139.031
-116.194
-89.058
-57.367
-20.946
19.284
61.518
102.766
138.875
166.405
183.036
186.456
174.601
147.032
104.828
50.808
-10.392
-74.246
-136.824
-193.747
-240.459
-273.982
-292.93
-297.389
-289.236
-270.769
-244.253
-212.981
-180.932
-150.984
-124.911
-103.638
-86.956
-74.419
-65.617
-59.274
-53.55
-47.25
-39.757
-30.964
-21.328
-11.23
-0.903
9.166
18.363
26.353
33.02
38.524
43.27
47.597
51.772
56.008
60.454
65.211
70.35
75.911
81.882
88.242
94.964
102.038
109.466
117.241
125.336
133.675
142.167
150.719
159.233
167.654
175.951
184.098
192.081
199.891
207.523
214.987
222.301
229.463
236.465
243.296
249.947
256.423
262.734
268.887
274.893
280.754
286.471
292.041
297.461
302.72
307.803
312.696
317.377
321.833
326.051
330.019
333.726
337.16
340.309
343.161
345.704
347.927
349.815
351.355
352.534
353.338
353.758
353.782
353.404
352.616
351.414
349.795
347.758
345.303
342.433
339.153
335.467
331.385
326.917
322.074
316.874
311.333
305.474
299.318
292.89
286.219
279.333
272.264
265.045
257.71
250.295
242.839
235.378
227.954
220.608
213.382
206.317
199.457
192.844
186.52
180.525
174.901
169.685
164.914
160.624
156.848
153.616
150.958
148.898
147.46
146.661
146.519
147.044
148.246
150.128
152.691
155.929
159.836
164.398
169.6
175.421
181.837
188.819
196.335
204.351
212.827
221.722
230.99
240.583
250.453
260.547
270.811
281.191
291.63
302.071
312.457
322.731
332.836
342.716
352.315
361.58
370.46
378.904
386.868
394.306
401.178
407.448
413.082
418.052
422.332
425.902
428.745
430.849
432.209
432.819
432.684
431.808
430.203
427.883
424.867
421.177
416.839
411.883
406.342
400.25
393.647
386.574
379.074
371.191
362.974
354.47
345.727
336.795
327.721
318.556
309.345
300.136
290.973
281.899
272.957
264.185
255.621
247.298
239.248
231.5
224.077
217.002
210.294
203.968
198.037
192.511
187.399
182.706
178.434
174.584
171.155
168.14
165.532
163.32
161.493
160.035
158.929
158.157
157.699
157.536
157.647
158.011
158.606
159.412
160.407
161.569
162.878
164.311
165.849
167.472
169.163
170.906
172.686
174.49
176.305
178.12
179.923
181.704
183.451
185.152
186.795
188.371
189.869
191.283
192.606
193.831
194.954
195.97
196.88
197.685
198.386
198.979
199.462
199.831
200.08
200.199
200.174
199.991
199.635
199.098
198.373
197.461
196.365
195.086
193.628
191.992
190.173
188.173
185.989
183.62
181.077
178.386
175.584
172.73
169.876
167.046
164.258
161.505
158.747
155.939
153.001
149.848
146.435
142.723
138.687
134.327
129.603
124.477
118.936
112.913
106.353
99.265
91.627
83.545
75.292
67.03
58.886
50.893
42.799
34.428
25.809
16.736
6.912
-3.492
-13.995
-23.376
-29.643
-31.414
-27.922
-18.417
-2.433
19.681
46.622
75.45
101.959
122.851
135.681
138.238
128.659
105.77
69.878
23.428
-29.52
-85.253
-140.526
-191.935
-235.835
-268.757
-288.646
-295.42
-290.631
-276.325
-254.657
-228.38
-201.002
-176.057
-156.098
-142.334
-134.748
-132.675
-135.27
-141.25
-148.785
-156.233
-162.55
-167.289
-170.604
-172.885
-174.447
-175.686
-177.116
-178.978
-181.228
-183.715
-186.151
-188.293
-190.042
-191.301
-191.977
-192.071
-191.625
-190.667
-189.221
-187.274
-184.773
-181.704
-178.082
-173.956
-169.417
-164.545
-159.408
-154.065
-148.555
-142.901
-137.11
-131.173
-125.067
-118.787
-112.351
-105.791
-99.152
-92.478
-85.808
-79.181
-72.631
-66.189
-59.885
-53.747
-47.805
-42.097
-36.661
-31.541
-26.782
-22.429
-18.521
-15.094
-12.179
-9.802
-7.987
-6.755
-6.12
-6.096
-6.693
-7.922
-9.786
-12.287
-15.422
-19.186
-23.566
-28.549
-34.115
-40.238
-46.889
-54.036
-61.64
-69.661
-78.054
-86.772
-95.765
-104.983
-114.373
-123.881
-133.451
-143.027
-152.552
-161.969
-171.222
-180.254
-189.01
-197.437
-205.486
-213.108
-220.258
-226.895
-232.98
-238.478
-243.357
-247.59
-251.155
-254.033
-256.211
-257.681
-258.44
-258.492
-257.846
-256.514
-254.516
-251.876
-248.623
-244.79
-240.416
-235.54
-230.21
-224.474
-218.383
-211.993
-205.359
-198.541
-191.598
-184.591
-177.581
-170.628
-163.794
-157.137
-150.716
-144.586
-138.8
-133.41
-128.463
-124.003
-120.069
-116.696
-113.916
-111.755
-110.231
-109.36
-109.152
-109.61
-110.732
-112.51
-114.932
-117.978
-121.625
-125.845
-130.603
-135.861
-141.579
-147.708
-154.202
-161.006
-168.066
-175.326
-182.727
-190.208
-197.71
-205.173
-212.535
-219.737
-226.722
-233.432
-239.815
-245.817
-251.391
-256.493
-261.081
-265.118
-268.572
-271.417
-273.63
-275.192
-276.092
-276.324
-275.884
-274.776
-273.008
-270.592
-267.547
-263.892
-259.654
-254.863
-249.551
-243.754
-237.511
-230.863
-223.854
-216.529
-208.934
-201.116
-193.122
-185
-176.795
-168.555
-160.323
-152.141
-144.052
-136.094
-128.302
-120.709
-113.345
-106.236
-99.404
-92.867
-86.642
-80.739
-75.165
-69.927
-65.026
-60.46
-56.227
-52.32
-48.731
-45.447
-42.456
-39.743
-37.291
-35.081
-33.094
-31.312
-29.712
-28.276
-26.984
-25.815
-24.752
-23.775
-22.87
-22.019
-21.21
-20.428
-19.664
-18.908
-18.154
-17.398
-16.638
-15.874
-15.107
-14.34
-13.58
-12.83
-12.096
-11.382
-10.692
-10.033
-9.412
-8.834
-8.305
-7.831
-7.422
-7.09
-6.846
-6.701
-6.665
-6.743
-6.939
-7.253
-7.679
-8.206
-8.818
-9.494
-10.215
-10.968
-11.731
-12.491
-13.218
-13.868
-14.4
-14.782
-14.975
-14.95
-14.69
-14.185
-13.458
-12.562
-11.543
-10.456
-9.348
-8.249
-7.193
-6.193
-5.264
-4.446
-3.78
-3.289
-2.99
-2.859
-2.8
-2.7
-2.376
-1.599
-0.153
2.229
5.677
10.144
15.477
21.35
27.437
33.625
39.866
46.038
52.473
59.879
69.052
81.102
96.869
116.504
139.825
166.403
194.768
222.582
247.269
265.86
275.636
274.646
261.56
235.651
197.761
150.277
96.125
38.739
-18.101
-70.816
-116.318
-151.909
-176.33
-189.989
-193.854
-189.428
-179.013
-165.147
-150.11
-136.194
-124.839
-116.374
-110.846
-107.875
-106.48
-105.552
-104.236
-101.712
-97.571
-91.909
-84.901
-76.986
-68.83
-61.101
-54.274
-48.626
-44.236
-41.022
-38.892
-37.699
-37.247
-37.299
-37.636
-38.171
-38.883
-39.789
-40.902
-42.166
-43.521
-44.946
-46.447
-48.042
-49.751
-51.576
-53.523
-55.644
-57.995
-60.636
-63.638
-67.025
-70.798
-74.956
-79.487
-84.378
-89.618
-95.176
-101.002
-107.053
-113.288
-119.67
-126.163
-132.718
-139.277
-145.784
-152.183
-158.424
-164.464
-170.26
-175.773
-180.969
-185.82
-190.303
-194.403
-198.102
-201.383
-204.234
-206.641
-208.597
-210.096
-211.138
-211.722
-211.854
-211.541
-210.797
-209.637
-208.082
-206.151
-203.869
-201.26
-198.354
-195.18
-191.769
-188.155
-184.371
-180.455
-176.443
-172.371
-168.278
-164.2
-160.172
-156.229
-152.404
-148.728
-145.231
-141.94
-138.882
-136.08
-133.557
-131.333
-129.427
-127.853
-126.626
-125.758
-125.257
-125.13
-125.379
-126.006
-127.01
-128.387
-130.13
-132.23
-134.676
-137.455
-140.552
-143.947
-147.622
-151.555
-155.721
-160.095
-164.651
-169.361
-174.196
-179.129
-184.129
-189.166
-194.212
-199.236
-204.21
-209.104
-213.89
-218.539
-223.025
-227.322
-231.403
-235.244
-238.822
-242.117
-245.106
-247.774
-250.101
-252.075
-253.681
-254.91
-255.754
-256.206
-256.263
-255.926
-255.196
-254.079
-252.581
-250.715
-248.492
-245.928
-243.039
-239.846
-236.37
-232.633
-228.66
-224.478
-220.112
-215.592
-210.946
-206.204
-201.396
-196.552
-191.702
-186.875
-182.102
-177.411
-172.831
-168.387
-164.107
-160.015
-156.133
-152.484
-149.084
-145.951
-143.097
-140.533
-138.267
-136.302
-134.638
-133.273
-132.201
-131.414
-130.901
-130.647
-130.634
-130.844
-131.255
-131.842
-132.578
-133.437
-134.388
-135.4
-136.444
-137.485
-138.494
-139.436
-140.281
-140.995
-141.547
-141.905
-142.037
-141.914
-141.506
-140.786
-139.73
-138.315
-136.522
-134.336
-131.745
-128.738
-125.314
-121.468
-117.204
-112.524
-107.437
-101.953
-96.087
-89.855
-83.277
-76.377
-69.179
-61.712
-54.006
-46.091
-37.999
-29.762
-21.413
-12.984
-4.512
3.97
12.425
20.819
29.114
37.273
45.258
53.035
60.572
67.839
74.808
81.454
87.755
93.695
99.263
104.447
109.238
113.63
117.617
121.194
124.358
127.104
129.426
131.321
132.794
133.852
134.513
134.796
134.723
134.324
133.628
132.663
131.455
130.03
128.41
126.629
124.734
122.784
120.857
119.022
117.336
115.847
114.588
113.562
112.752
112.104
111.528
110.964
110.387
109.78
109.151
108.484
107.733
106.862
105.849
104.658
103.279
101.712
99.938
98.08
96.4
95.097
94.347
94.15
94.248
94.422
94.631
94.672
94.236
93.491
92.956
93.677
97.393
105.507
118.785
138.013
163.772
195.309
230.917
267.994
302.585
331.177
351.145
359.614
354.908
338.004
310.709
274.959
231.751
180.563
122.942
65.207
18.596
-7.055
-8.353
12.297
45.67
83.655
124.42
165.065
203.129
236.117
257.339
265.507
265.458
261.607
260.348
264.712
271.927
280.131
287.824
294.255
300.814
307.963
315.04
321.435
326.594
330.451
333.454
335.999
338.243
340.29
342.256
344.224
346.201
348.13
349.881
351.365
352.608
353.661
354.58
355.398
356.095
356.622
356.91
356.907
356.572
355.882
354.836
353.455
351.777
349.86
347.779
345.587
343.321
341.005
338.654
336.287
333.932
331.621
329.39
327.277
325.319
323.554
322.015
320.729
319.715
318.987
318.551
318.412
318.577
319.049
319.832
320.929
322.338
324.057
326.08
328.399
330.999
333.863
336.97
340.296
343.815
347.499
351.315
355.233
359.219
363.241
367.263
371.253
375.175
378.995
382.681
386.196
389.509
392.584
395.39
397.895
400.068
401.883
403.311
404.33
404.916
405.051
404.715
403.894
402.573
400.741
398.389
395.511
392.103
388.165
383.699
378.712
373.21
367.205
360.709
353.737
346.306
338.435
330.142
321.449
312.379
302.956
293.205
283.152
272.825
262.249
251.455
240.469
229.321
218.04
206.654
195.193
183.686
172.161
160.647
149.171
137.762
126.445
115.248
104.194
93.307
82.61
72.124
61.868
51.86
42.118
32.655
23.486
14.624
6.078
-2.142
-10.029
-17.577
-24.78
-31.636
-38.143
-44.298
-50.104
-55.562
-60.673
-65.442
-69.874
-73.975
-77.751
-81.211
-84.363
-87.218
-89.785
-92.075
-94.1
-95.872
-97.401
-98.701
-99.781
-100.655
-101.332
-101.823
-102.139
-102.288
-102.279
-102.119
-101.817
-101.377
-100.804
-100.103
-99.278
-98.33
-97.262
-96.075
-94.768
-93.343
-91.798
-90.132
-88.344
-86.432
-84.394
-82.227
-79.929
-77.497
-74.93
-72.225
-69.381
-66.397
-63.275
-60.014
-56.618
-53.092
-49.439
-45.666
-41.781
-37.794
-33.714
-29.555
-25.33
-21.055
-16.746
-12.422
-8.102
-3.808
0.437
4.612
8.691
12.651
16.465
20.11
23.559
26.787
29.769
32.48
34.893
36.986
38.736
40.121
41.123
41.724
41.912
41.675
41.005
39.899
38.355
36.374
33.959
31.118
27.859
24.196
20.145
15.726
10.961
5.875
0.5
-5.133
-10.99
-17.033
-23.226
-29.53
-35.904
-42.307
-48.696
-55.026
-61.251
-67.326
-73.207
-78.848
-84.21
-89.254
-93.944
-98.248
-102.133
-105.573
-108.545
-111.024
-112.991
-114.428
-115.321
-115.66
-115.438
-114.642
-113.259
-111.27
-108.662
-105.424
-101.554
-97.058
-91.952
-86.261
-80.025
-73.292
-66.118
-58.562
-50.67
-42.479
-34.05
-25.463
-16.843
-8.35
-0.107
7.782
15.22
22.17
28.609
34.513
39.992
45.218
50.218
54.926
59.095
62.287
64.254
64.962
64.308
62.277
59.263
56.01
53.787
54.16
58.165
66.304
78.95
96.071
116.751
139.197
160.692
178.109
188.96
191.332
183.379
163.845
132.893
92.11
44.379
-6.695
-57.781
-105.645
-146.566
-177.254
-195.891
-202.06
-196.755
-181.889
-159.461
-131.928
-102.626
-74.677
-50.249
-30.647
-16.099
-6.25
-0.745
1.229
1.002
-0.328
-2.116
-4.188
-6.936
-10.869
-16.38
-23.934
-33.974
-46.709
-62.109
-79.874
-99.539
-120.605
-142.561
-164.973
-187.465
-209.722
-231.528
-252.654
-272.817
-291.775
-309.318
-325.281
-339.627
-352.348
-363.455
-373.086
-381.425
-388.709
-395.263
-401.296
-406.907
-412.171
-417.095
-421.697
-426.054
-430.196
-434.102
-437.766
-441.143
-444.202
-446.947
-449.282
-451.046
-452.024
-451.918
-450.536
-447.816
-443.729
-438.321
-431.677
-423.879
-415.09
-405.545
-395.433
-384.925
-374.153
-363.183
-352.158
-341.282
-330.8
-321.032
-312.207
-304.445
-297.836
-292.407
-288.118
-284.895
-282.561
-280.839
-279.513
-278.416
-277.42
-276.465
-275.441
-274.191
-272.545
-270.293
-267.273
-263.389
-258.554
-252.706
-245.847
-238.015
-229.33
-220
-210.178
-199.965
-189.439
-178.629
-167.587
-156.389
-145.1
-133.788
-122.516
-111.328
-100.28
-89.429
-78.801
-68.401
-58.199
-48.125
-38.141
-28.238
-18.417
-8.7
0.888
10.333
19.6
28.645
37.43
45.925
54.107
61.961
69.466
76.593
83.311
89.586
95.388
100.7
105.506
109.797
113.569
116.822
119.564
121.814
123.587
124.898
125.764
126.199
126.221
125.852
125.112
124.023
122.608
120.892
118.903
116.669
114.22
111.583
108.787
105.86
102.829
99.72
96.558
93.369
90.173
86.993
83.85
80.762
77.746
74.819
71.993
69.281
66.694
64.239
61.925
59.754
57.732
55.86
54.141
52.576
51.165
49.907
48.802
47.849
47.048
46.395
45.89
45.529
45.31
45.231
45.291
45.487
45.819
46.286
46.889
47.627
48.503
49.517
50.672
51.968
53.408
54.992
56.724
58.602
60.629
62.805
65.129
67.601
70.22
72.983
75.886
78.925
82.094
85.388
88.797
92.313
95.924
99.62
103.388
107.213
111.083
114.98
118.887
122.787
126.659
130.484
134.24
137.903
141.448
144.85
148.085
151.128
153.952
156.534
158.85
160.877
162.592
163.976
165.01
165.675
165.953
165.829
165.288
164.319
162.914
161.065
158.765
156.012
152.805
149.148
145.043
140.495
135.507
130.085
124.24
117.984
111.334
104.311
96.939
89.243
81.253
73.001
64.519
55.839
46.993
38.005
28.904
19.715
10.463
1.182
-8.103
-17.372
-26.608
-35.799
-44.927
-53.964
-62.879
-71.647
-80.235
-88.616
-96.763
-104.625
-112.153
-119.294
-125.995
-132.234
-137.978
-143.173
-147.742
-151.599
-154.715
-157.14
-158.973
-160.331
-161.31
-161.927
-162.254
-162.484
-162.687
-162.876
-162.904
-162.326
-160.962
-159.025
-156.736
-154.327
-152.145
-150.301
-149.219
-150.087
-153.451
-159.2
-167.055
-175.991
-184.838
-193.051
-199.619
-202.371
-199.764
-190.591
-173.727
-149.756
-119.744
-84.022
-43.523
-0.655
41.953
80.975
112.456
134.159
144.522
141.223
122.246
88.108
41.482
-14.159
-74.112
-137.45
-206.774
-280.141
-352.711
-416.315
-458.804
-474.757
-465.576
-435.918
-395.532
-353.151
-315.124
-287.97
-274.925
-275.674
-286.247
-298.585
-305.421
-303.026
-291.908
-276.485
-260.508
-245.435
-231.343
-217.108
-202.553
-188.716
-176.289
-165.648
-156.762
-149.185
-142.665
-137.13
-132.388
-128.221
-124.47
-120.964
-117.645
-114.521
-111.518
-108.571
-105.627
-102.623
-99.557
-96.463
-93.36
-90.287
-87.295
-84.413
-81.693
-79.193
-76.962
-75.073
-73.572
-72.479
-71.81
-71.567
-71.743
-72.338
-73.326
-74.664
-76.311
-78.23
-80.381
-82.735
-85.255
-87.897
-90.616
-93.37
-96.119
-98.831
-101.477
-104.028
-106.459
-108.748
-110.879
-112.839
-114.617
-116.198
-117.569
-118.716
-119.63
-120.302
-120.727
-120.9
-120.819
-120.485
-119.903
-119.081
-118.027
-116.751
-115.266
-113.585
-111.724
-109.698
-107.526
-105.226
-102.817
-100.32
-97.754
-95.14
-92.498
-89.847
-87.205
-84.589
-82.015
-79.5
-77.058
-74.702
-72.446
-70.303
-68.283
-66.398
-64.658
-63.071
-61.645
-60.387
-59.302
-58.394
-57.665
-57.117
-56.748
-56.557
-56.542
-56.698
-57.019
-57.498
-58.129
-58.903
-59.81
-60.84
-61.981
-63.224
-64.555
-65.962
-67.433
-68.955
-70.516
-72.101
-73.697
-75.291
-76.868
-78.414
-79.912
-81.348
-82.705
-83.966
-85.115
-86.135
-87.006
-87.712
-88.235
-88.555
-88.656
-88.519
-88.126
-87.459
-86.502
-85.236
-83.645
-81.712
-79.424
-76.764
-73.718
-70.275
-66.421
-62.145
-57.438
-52.29
-46.694
-40.643
-34.133
-27.159
-19.721
-11.818
-3.453
5.371
14.645
24.364
34.514
45.084
56.06
67.423
79.157
91.239
103.649
116.361
129.349
142.584
156.038
169.678
183.471
197.384
211.381
225.428
239.487
253.522
267.497
281.375
295.117
308.687
322.047
335.161
347.993
360.506
372.667
384.443
395.805
406.722
417.167
427.116
436.545
445.433
453.76
461.508
468.661
475.204
481.126
486.416
491.07
495.082
498.453
501.184
503.28
504.749
505.597
505.837
505.477
504.531
503.015
500.943
498.335
495.211
491.592
487.503
482.969
478.015
472.668
466.952
460.892
454.513
447.838
440.887
433.681
426.242
418.594
410.761
402.769
394.644
386.412
378.106
369.753
361.377
352.997
344.629
336.283
327.973
319.711
311.511
303.387
295.353
287.424
279.62
271.967
264.479
257.162
250.006
242.984
236.085
229.317
222.687
216.213
209.916
203.824
197.993
192.497
187.384
182.685
178.401
174.488
170.921
167.688
164.787
162.256
160.118
158.353
156.948
155.896
155.153
154.67
154.347
153.969
153.357
152.362
150.848
148.829
146.395
143.554
140.296
136.662
132.726
128.838
125.58
123.197
121.688
121.053
121.285
122.524
124.971
128.09
130.636
131.866
131.551
130
128.21
126.887
126.301
127.759
133.565
145.527
165.314
193.546
228.867
270.282
316.649
364.701
411.648
455.134
492.977
525.821
551.637
564.513
558.03
525.131
466.457
390.383
306.026
223.272
146.824
76.825
15.693
-34.183
-70.321
-90.848
-96.943
-89.998
-72.187
-44.949
-10.062
26.138
59.139
84.709
98.851
105.03
106.432
105.68
107.324
110.989
115.585
121.108
126.203
131.211
136.766
142.387
147.646
151.871
154.575
155.843
155.987
155.362
154.251
152.898
151.51
150.237
149.188
148.42
147.915
147.637
147.566
147.656
147.886
148.246
148.697
149.183
149.628
149.937
150.014
149.769
149.136
148.078
146.568
144.587
142.133
139.207
135.823
132.003
127.757
123.086
117.995
112.495
106.604
100.347
93.753
86.851
79.668
72.23
64.562
56.685
48.618
40.379
31.983
23.444
14.781
6.016
-2.827
-11.723
-20.647
-29.574
-38.481
-47.342
-56.135
-64.838
-73.432
-81.897
-90.215
-98.367
-106.336
-114.102
-121.65
-128.963
-136.024
-142.82
-149.338
-155.565
-161.49
-167.104
-172.401
-177.373
-182.015
-186.322
-190.291
-193.92
-197.207
-200.153
-202.758
-205.024
-206.955
-208.556
-209.833
-210.792
-211.441
-211.789
-211.844
-211.617
-211.116
-210.354
-209.34
-208.088
-206.61
-204.919
-203.029
-200.955
-198.711
-196.313
-193.776
-191.116
-188.349
-185.49
-182.556
-179.561
-176.522
-173.455
-170.374
-167.296
-164.234
-161.205
-158.223
-155.302
-152.456
-149.699
-147.043
-144.501
-142.085
-139.806
-137.674
-135.701
-133.894
-132.262
-130.813
-129.553
-128.488
-127.622
-126.959
-126.501
-126.25
-126.205
-126.367
-126.731
-127.297
-128.06
-129.015
-130.156
-131.476
-132.967
-134.619
-136.424
-138.369
-140.443
-142.633
-144.924
-147.302
-149.751
-152.255
-154.797
-157.358
-159.922
-162.468
-164.979
-167.435
-169.817
-172.106
-174.282
-176.327
-178.223
-179.952
-181.498
-182.844
-183.974
-184.875
-185.532
-185.934
-186.068
-185.923
-185.491
-184.762
-183.73
-182.389
-180.735
-178.766
-176.48
-173.878
-170.962
-167.737
-164.206
-160.378
-156.259
-151.861
-147.195
-142.273
-137.109
-131.719
-126.118
-120.325
-114.358
-108.235
-101.974
-95.594
-89.114
-82.553
-75.931
-69.265
-62.576
-55.882
-49.204
-42.562
-35.976
-29.466
-23.051
-16.749
-10.579
-4.558
1.298
6.973
12.451
17.72
22.765
27.573
32.134
36.436
40.47
44.228
47.704
50.892
53.787
56.388
58.692
60.696
62.398
63.796
64.889
65.676
66.158
66.335
66.212
65.792
65.084
64.1
62.851
61.349
59.606
57.637
55.455
53.078
50.516
47.778
44.875
41.82
38.626
35.311
31.89
28.379
24.798
21.175
17.536
13.915
10.336
6.817
3.384
0.065
-3.105
-6.072
-8.791
-11.228
-13.346
-15.113
-16.508
-17.518
-18.17
-18.525
-18.642
-18.59
-18.426
-18.185
-17.916
-17.652
-17.422
-17.276
-17.258
-17.399
-17.727
-18.241
-18.883
-19.571
-20.147
-20.407
-20.105
-18.907
-16.624
-13.232
-8.829
-3.743
1.739
7.551
13.463
19.069
24.433
29.991
36.545
45.462
57.624
73.149
92.337
115.505
141.956
170.11
197.401
220.317
235.938
242.156
236.583
216.808
182.604
136.058
80.379
19.078
-47.126
-119.376
-195.648
-269.039
-328.643
-364.168
-371.374
-354.165
-323.199
-288.881
-258.106
-233.872
-213.9
-195.938
-179.858
-165.977
-155.758
-149.822
-146.721
-144.383
-141.373
-137.063
-131.452
-124.995
-118.014
-110.717
-103.646
-97.457
-92.458
-88.708
-86.029
-84.051
-82.507
-81.194
-79.902
-78.477
-76.815
-74.856
-72.614
-70.144
-67.484
-64.685
-61.778
-58.786
-55.76
-52.768
-49.894
-47.231
-44.868
-42.896
-41.375
-40.337
-39.8
-39.769
-40.237
-41.193
-42.617
-44.473
-46.74
-49.403
-52.438
-55.822
-59.522
-63.494
-67.693
-72.075
-76.596
-81.215
-85.894
-90.598
-95.292
-99.945
-104.529
-109.018
-113.381
-117.589
-121.609
-125.411
-128.966
-132.249
-135.236
-137.905
-140.237
-142.217
-143.834
-145.078
-145.943
-146.425
-146.519
-146.225
-145.544
-144.48
-143.036
-141.221
-139.043
-136.513
-133.644
-130.452
-126.953
-123.164
-119.105
-114.795
-110.254
-105.503
-100.563
-95.456
-90.203
-84.825
-79.345
-73.783
-68.162
-62.499
-56.816
-51.129
-45.456
-39.811
-34.209
-28.66
-23.178
-17.77
-12.446
-7.213
-2.078
2.954
7.877
12.688
17.382
21.958
26.414
30.748
34.962
39.053
43.024
46.875
50.606
54.218
57.713
61.091
64.353
67.5
70.532
73.451
76.256
78.947
81.523
83.984
86.328
88.553
90.656
92.633
94.48
96.195
97.772
99.207
100.496
101.636
102.622
103.451
104.119
104.624
104.963
105.133
105.134
104.963
104.62
104.105
103.419
102.564
101.542
100.356
99.01
97.509
95.856
94.058
92.12
90.048
87.85
85.533
83.103
80.571
77.943
75.231
72.441
69.584
66.668
63.702
60.693
57.65
54.578
51.485
48.375
45.254
42.126
38.995
35.864
32.735
29.609
26.489
23.374
20.262
17.152
14.042
10.928
7.808
4.678
1.533
-1.631
-4.816
-8.028
-11.271
-14.548
-17.864
-21.223
-24.629
-28.086
-31.595
-35.16
-38.782
-42.459
-46.192
-49.978
-53.813
-57.692
-61.612
-65.566
-69.549
-73.554
-77.574
-81.604
-85.636
-89.663
-93.677
-97.669
-101.632
-105.555
-109.43
-113.249
-117.004
-120.688
-124.294
-127.815
-131.248
-134.586
-137.828
-140.967
-144.002
-146.93
-149.75
-152.461
-155.064
-157.563
-159.961
-162.266
-164.484
-166.622
-168.689
-170.693
-172.642
-174.542
-176.399
-178.215
-179.993
-181.737
-183.45
-185.135
-186.793
-188.428
-190.046
-191.656
-193.266
-194.882
-196.509
-198.148
-199.801
-201.462
-203.124
-204.773
-206.39
-207.955
-209.451
-210.867
-212.191
-213.405
-214.48
-215.366
-216.02
-216.407
-216.494
-216.247
-215.645
-214.685
-213.392
-211.829
-210.073
-208.195
-206.263
-204.32
-202.386
-200.489
-198.671
-196.991
-195.518
-194.278
-193.262
-192.459
-191.818
-191.246
-190.627
-189.709
-188.131
-185.695
-182.331
-178.129
-173.442
-168.557
-163.524
-158.532
-153.887
-149.462
-144.792
-138.931
-130.31
-117.794
-101.02
-79.683
-53.646
-23.775
8.229
39.586
66.42
85.444
94.368
90.973
73.353
41.141
-4.595
-61.213
-124.479
-190.256
-254.95
-314.498
-364.646
-402.617
-427.115
-438.203
-437.584
-427.318
-409.395
-386.793
-363.198
-341.287
-322.764
-308.55
-298.431
-291.999
-288.913
-288.029
-287.682
-286.777
-284.718
-281.374
-277.169
-272.468
-267.508
-262.758
-258.788
-255.92
-254.267
-253.695
-253.866
-254.497
-255.345
-256.219
-256.981
-257.539
-257.845
-257.878
-257.644
-257.157
-256.435
-255.483
-254.306
-252.911
-251.317
-249.588
-247.799
-246.028
-244.364
-242.853
-241.508
-240.339
-239.338
-238.491
-237.786
-237.192
-236.665
-236.18
-235.716
-235.253
-234.772
-234.239
-233.611
-232.846
-231.9
-230.735
-229.316
-227.611
-225.588
-223.226
-220.502
-217.403
-213.918
-210.033
-205.733
-201.006
-195.839
-190.224
-184.154
-177.625
-170.635
-163.186
-155.285
-146.941
-138.166
-128.976
-119.386
-109.414
-99.083
-88.412
-77.427
-66.151
-54.612
-42.836
-30.854
-18.696
-6.394
6.02
18.514
31.054
43.609
56.146
68.635
81.046
93.35
105.519
117.527
129.347
140.957
152.334
163.457
174.306
184.865
195.119
205.054
214.658
223.924
232.843
241.409
249.618
257.466
264.952
272.076
278.837
285.236
291.278
296.964
302.299
307.29
311.94
316.257
320.246
323.915
327.27
330.318
333.065
335.517
337.68
339.559
341.16
342.485
343.539
344.325
344.845
345.102
345.095
344.827
344.298
343.507
342.455
341.142
339.568
337.732
335.634
333.274
330.653
327.771
324.629
321.228
317.57
313.656
309.488
305.069
300.402
295.489
290.336
284.946
279.325
273.478
267.41
261.13
254.644
247.96
241.088
234.037
226.817
219.44
211.918
204.261
196.484
188.599
180.621
172.562
164.437
156.26
148.046
139.809
131.563
123.324
115.106
106.925
98.795
90.732
82.751
74.868
67.098
59.457
51.963
44.63
37.476
30.518
23.773
17.259
10.993
4.993
-0.723
-6.137
-11.233
-15.994
-20.403
-24.446
-28.106
-31.368
-34.22
-36.647
-38.636
-40.174
-41.25
-41.853
-41.974
-41.604
-40.735
-39.362
-37.478
-35.08
-32.166
-28.734
-24.784
-20.318
-15.338
-9.851
-3.863
2.616
9.575
16.999
24.874
33.18
41.898
51.007
60.485
70.308
80.453
90.894
101.606
112.562
123.736
135.099
146.622
158.277
170.032
181.858
193.727
205.608
217.475
229.299
241.05
252.703
264.231
275.607
286.807
297.805
308.579
319.108
329.373
339.358
349.05
358.436
367.507
376.259
384.689
392.797
400.582
408.046
415.189
422.008
428.505
434.672
440.504
446.001
451.163
455.995
460.513
464.731
468.673
472.365
475.833
479.101
482.192
485.125
487.918
490.602
493.213
495.799
498.421
501.131
503.973
506.984
510.178
513.543
517.048
520.626
524.196
527.71
531.139
534.465
537.692
540.79
543.711
546.422
548.875
551.024
552.852
554.34
555.475
556.368
557.249
558.28
559.547
560.949
562.157
562.897
563.064
562.452
560.753
558.135
555.202
553.034
553.351
557.573
566.459
580.797
601.168
626.854
656.271
687.006
715.302
737.744
751.752
754.365
743.978
721.72
689.128
647.868
598.315
538.948
471.185
401.926
343.449
307.611
299.208
314.459
341.776
369.561
391.601
406.111
415.03
420.212
421.517
418.017
408.391
392.578
371.711
347.478
322.358
298.008
274.994
253.652
233.975
215.756
199.116
184.032
169.774
155.901
142.334
128.954
115.893
103.281
90.91
78.601
66.528
54.78
43.38
32.403
21.735
11.287
1.117
-8.741
-18.316
-27.634
-36.737
-45.673
-54.411
-62.919
-71.184
-79.176
-86.883
-94.293
-101.381
-108.138
-114.558
-120.645
-126.406
-131.855
-137.003
-141.861
-146.437
-150.737
-154.769
-158.541
-162.059
-165.333
-168.366
-171.163
-173.727
-176.065
-178.181
-180.083
-181.776
-183.264
-184.553
-185.651
-186.563
-187.299
-187.865
-188.268
-188.517
-188.619
-188.583
-188.418
-188.132
-187.731
-187.224
-186.614
-185.908
-185.109
-184.221
-183.245
-182.185
-181.041
-179.815
-178.51
-177.127
-175.667
-174.132
-172.521
-170.835
-169.076
-167.241
-165.332
-163.346
-161.284
-159.145
-156.928
-154.632
-152.257
-149.802
-147.267
-144.653
-141.959
-139.187
-136.337
-133.413
-130.418
-127.354
-124.228
-121.045
-117.813
-114.537
-111.228
-107.895
-104.547
-101.196
-97.854
-94.531
-91.242
-87.997
-84.812
-81.698
-78.669
-75.738
-72.917
-70.219
-67.655
-65.236
-62.971
-60.871
-58.943
-57.194
-55.63
-54.256
-53.073
-52.085
-51.291
-50.691
-50.28
-50.055
-50.01
-50.137
-50.428
-50.871
-51.456
-52.169
-52.995
-53.92
-54.926
-55.997
-57.115
-58.261
-59.417
-60.565
-61.685
-62.759
-63.771
-64.704
-65.543
-66.272
-66.88
-67.354
-67.685
-67.863
-67.884
-67.741
-67.431
-66.954
-66.309
-65.498
-64.527
-63.401
-62.127
-60.716
-59.177
-57.523
-55.768
-53.928
-52.018
-50.057
-48.063
-46.056
-44.056
-42.084
-40.161
-38.307
-36.543
-34.89
-33.365
-31.987
-30.772
-29.735
-28.89
-28.248
-27.819
-27.612
-27.635
-27.893
-28.389
-29.126
-30.103
-31.319
-32.772
-34.456
-36.365
-38.492
-40.827
-43.362
-46.085
-48.984
-52.045
-55.255
-58.598
-62.057
-65.614
-69.25
-72.946
-76.685
-80.446
-84.213
-87.969
-91.699
-95.39
-99.031
-102.612
-106.123
-109.556
-112.904
-116.16
-119.321
-122.382
-125.342
-128.199
-130.954
-133.61
-136.17
-138.64
-141.023
-143.326
-145.552
-147.709
-149.803
-151.842
-153.833
-155.785
-157.71
-159.621
-161.534
-163.461
-165.416
-167.411
-169.459
-171.57
-173.753
-176.014
-178.352
-180.768
-183.266
-185.848
-188.52
-191.283
-194.141
-197.098
-200.165
-203.357
-206.684
-210.144
-213.73
-217.435
-221.244
-225.148
-229.132
-233.173
-237.255
-241.365
-245.491
-249.629
-253.75
-257.821
-261.795
-265.6
-269.191
-272.526
-275.561
-278.32
-280.851
-283.203
-285.483
-287.782
-290.111
-292.579
-295.281
-298.114
-301.065
-304.082
-307.03
-310.102
-313.509
-317.12
-320.886
-324.995
-329.375
-334.255
-339.975
-346.069
-352.251
-358.662
-365.169
-371.563
-377.767
-382.836
-385.428
-385.008
-380.74
-371.778
-357.839
-338.538
-313.854
-285.251
-255.282
-226.658
-202.433
-185.185
-176.881
-179.701
-195.181
-223.21
-262.029
-308.522
-359.074
-410.6
-460
-503.549
-538.086
-561.489
-573.73
-577.374
-573.91
-563.651
-546.422
-520.641
-489.174
-458.468
-434.208
-422.978
-424.968
-433.671
-443.393
-447.564
-443.918
-436.147
-426.631
-417.338
-409.173
-400.604
-391.365
-382.256
-373.684
-366.175
-359.801
-354.085
-348.728
-343.562
-338.373
-332.995
-327.361
-321.479
-315.435
-309.357
-303.311
-297.289
-291.244
-285.13
-278.924
-272.609
-266.206
-259.751
-253.301
-246.949
-240.779
-234.84
-229.158
-223.735
-218.551
-213.586
-208.819
-204.216
-199.763
-195.453
-191.278
-187.237
-183.319
-179.504
-175.765
-172.07
-168.377
-164.655
-160.872
-157
-153.016
-148.901
-144.639
-140.223
-135.645
-130.895
-125.962
-120.837
-115.51
-109.975
-104.228
-98.265
-92.086
-85.694
-79.096
-72.303
-65.328
-58.187
-50.898
-43.478
-35.95
-28.335
-20.658
-12.942
-5.215
2.497
10.165
17.758
25.243
32.589
39.762
46.73
53.462
59.925
66.089
71.928
77.415
82.525
87.236
91.525
95.375
98.769
101.692
104.132
106.081
107.533
108.488
108.947
108.915
108.401
107.417
105.976
104.097
101.798
99.103
96.036
92.624
88.898
84.888
80.628
76.154
71.501
66.709
61.816
56.86
51.88
46.917
42.008
37.192
32.506
27.987
23.671
19.591
15.779
12.266
9.078
6.241
3.777
1.703
0.037
-1.21
-2.028
-2.412
-2.36
-1.872
-0.953
0.39
2.145
4.299
6.836
9.735
12.975
16.531
20.376
24.482
28.818
33.353
38.052
42.883
47.809
52.793
57.801
62.793
67.734
72.585
77.312
81.879
86.25
90.393
94.277
97.872
101.151
104.089
106.663
108.854
110.645
112.023
112.977
113.499
113.586
113.236
112.45
111.233
109.593
107.539
105.084
102.243
99.034
95.475
91.589
87.399
82.932
78.215
73.276
68.146
62.854
57.434
51.918
46.338
40.728
35.121
29.55
24.048
18.645
13.372
8.259
3.332
-1.384
-5.866
-10.093
-14.048
-17.715
-21.079
-24.13
-26.859
-29.258
-31.325
-33.056
-34.454
-35.523
-36.269
-36.702
-36.836
-36.686
-36.267
-35.599
-34.7
-33.593
-32.3
-30.845
-29.254
-27.551
-25.765
-23.924
-22.055
-20.188
-18.35
-16.569
-14.87
-13.276
-11.81
-10.493
-9.343
-8.38
-7.62
-7.077
-6.768
-6.703
-6.892
-7.339
-8.049
-9.021
-10.25
-11.728
-13.439
-15.368
-17.498
-19.811
-22.286
-24.9
-27.631
-30.458
-33.362
-36.325
-39.325
-42.338
-45.335
-48.286
-51.159
-53.919
-56.528
-58.947
-61.134
-63.055
-64.687
-66.007
-66.985
-67.58
-67.734
-67.391
-66.514
-65.064
-63.011
-60.347
-57.081
-53.252
-48.949
-44.258
-39.267
-34.06
-28.667
-23.103
-17.403
-11.598
-5.762
0.012
5.694
11.272
16.725
22.111
27.507
33.014
38.921
45.553
53.072
61.538
70.767
80.354
90.043
99.71
109.095
117.998
126.604
135.492
145.779
158.815
175.42
195.933
220.597
249.324
281.069
313.707
344.239
369.486
386.934
394.521
390.122
372.026
340.881
299.915
253.035
203.451
151.157
94.43
35.201
-20.24
-61.756
-79.615
-70.941
-40.671
0.154
40.2
72.397
95.11
111.629
125.064
136.527
145.843
151.728
154.343
155.509
156.845
159.382
163.375
168.402
174.034
179.995
185.833
190.947
194.965
197.838
199.754
201.08
202.16
203.165
204.219
205.467
206.964
208.737
210.801
213.104
215.597
218.281
221.154
224.217
227.469
230.861
234.304
237.717
241.003
244.105
247.001
249.682
252.153
254.429
256.525
258.465
260.288
262.014
263.651
265.204
266.674
268.076
269.437
270.789
272.159
273.575
275.058
276.626
278.3
280.089
282.003
284.043
286.208
288.5
290.924
293.485
296.186
299.028
302.01
305.128
308.38
311.757
315.248
318.839
322.512
326.249
330.031
333.838
337.648
341.44
345.19
348.875
352.471
355.954
359.3
362.481
365.472
368.246
370.777
373.04
375.008
376.659
377.968
378.915
379.479
379.641
379.384
378.692
377.551
375.948
373.875
371.324
368.289
364.768
360.762
356.274
351.311
345.879
339.99
333.657
326.893
319.717
312.145
304.198
295.898
287.267
278.331
269.115
259.646
249.952
240.062
230.004
219.81
209.508
199.129
188.702
178.257
167.823
157.43
147.104
136.873
126.763
116.797
107
97.392
87.994
78.823
69.897
61.229
52.833
44.721
36.902
29.384
22.175
15.278
8.698
2.436
-3.507
-9.132
-14.441
-19.438
-24.126
-28.512
-32.601
-36.402
-39.923
-43.172
-46.161
-48.898
-51.395
-53.664
-55.716
-57.564
-59.219
-60.693
-62
-63.149
-64.155
-65.028
-65.78
-66.422
-66.966
-67.422
-67.802
-68.117
-68.375
-68.589
-68.766
-68.917
-69.05
-69.173
-69.296
-69.424
-69.565
-69.726
-69.913
-70.131
-70.385
-70.681
-71.021
-71.41
-71.849
-72.34
-72.886
-73.485
-74.137
-74.841
-75.596
-76.398
-77.244
-78.131
-79.054
-80.005
-80.979
-81.968
-82.964
-83.955
-84.933
-85.887
-86.805
-87.678
-88.494
-89.242
-89.912
-90.494
-90.979
-91.357
-91.618
-91.753
-91.753
-91.611
-91.319
-90.871
-90.26
-89.484
-88.538
-87.424
-86.14
-84.688
-83.071
-81.292
-79.356
-77.269
-75.039
-72.677
-70.192
-67.599
-64.911
-62.148
-59.325
-56.46
-53.57
-50.67
-47.777
-44.907
-42.073
-39.284
-36.552
-33.888
-31.305
-28.816
-26.433
-24.166
-22.026
-20.026
-18.178
-16.49
-14.967
-13.609
-12.412
-11.371
-10.479
-9.723
-9.089
-8.557
-8.107
-7.724
-7.389
-7.078
-6.763
-6.403
-5.96
-5.405
-4.71
-3.85
-2.812
-1.599
-0.237
1.218
2.716
4.224
5.723
7.217
8.701
10.178
11.67
13.185
14.752
16.389
18.039
19.652
21.245
22.879
24.729
27.03
29.868
33.317
37.55
42.579
48.363
54.723
61.053
66.762
71.696
75.808
79.081
81.898
84.679
87.989
93.145
101.496
112.597
125.663
140.875
156.799
174.281
193.948
209.86
217.474
212.08
189.644
155.828
116.114
73.288
29.429
-18.857
-71.971
-124.796
-168.629
-192.263
-190.344
-163.266
-117.953
-66.918
-20.682
11.531
23.99
17.219
-4.185
-32.222
-58.586
-78.022
-90.453
-99.843
-109.277
-119.756
-130.237
-137.917
-142.117
-144.413
-145.842
-147.17
-148.625
-149.676
-150.372
-151.293
-152.456
-153.465
-154.091
-154.158
-153.717
-153.091
-152.381
-151.499
-150.458
-149.322
-148.176
-147.151
-146.292
-145.562
-144.943
-144.434
-144.038
-143.783
-143.674
-143.695
-143.836
-144.091
-144.464
-144.964
-145.604
-146.393
-147.339
-148.445
-149.71
-151.136
-152.721
-154.461
-156.346
-158.36
-160.485
-162.703
-164.999
-167.359
-169.763
-172.192
-174.627
-177.045
-179.428
-181.757
-184.013
-186.176
-188.229
-190.153
-191.933
-193.555
-195.007
-196.276
-197.35
-198.219
-198.872
-199.299
-199.494
-199.449
-199.156
-198.612
-197.813
-196.757
-195.444
-193.876
-192.057
-189.989
-187.68
-185.136
-182.366
-179.38
-176.187
-172.798
-169.227
-165.486
-161.587
-157.546
-153.376
-149.091
-144.707
-140.238
-135.699
-131.106
-126.472
-121.813
-117.144
-112.479
-107.832
-103.217
-98.648
-94.137
-89.697
-85.341
-81.078
-76.92
-72.877
-68.958
-65.171
-61.522
-58.019
-54.667
-51.47
-48.432
-45.554
-42.84
-40.288
-37.901
-35.676
-33.613
-31.709
-29.962
-28.367
-26.922
-25.621
-24.46
-23.432
-22.532
-21.754
-21.09
-20.535
-20.082
-19.724
-19.454
-19.267
-19.156
-19.116
-19.14
-19.224
-19.363
-19.552
-19.787
-20.066
-20.386
-20.745
-21.14
-21.571
-22.037
-22.537
-23.072
-23.641
-24.243
-24.88
-25.552
-26.259
-27.001
-27.779
-28.593
-29.444
-30.332
-31.255
-32.212
-33.2
-34.215
-35.254
-36.318
-37.398
-38.485
-39.58
-40.679
-41.775
-42.868
-43.944
-44.966
-45.926
-46.815
-47.581
-48.192
-48.629
-48.835
-48.802
-48.58
-48.146
-47.455
-46.626
-45.752
-44.695
-43.468
-42.122
-40.246
-38.469
-37.603
-36.557
-34.971
-31.147
-21.967
-9.304
4.062
15.225
18.704
15.337
10.328
7.186
11.443
24.392
40.755
57.421
71.246
80.031
86.846
93.606
100.875
109.853
119.542
129.063
138.665
148.148
157.531
166.982
176.33
185.426
194.261
202.786
210.927
218.66
225.962
232.797
239.152
245.019
250.365
255.167
259.418
263.107
266.231
268.79
270.781
272.207
273.073
273.383
273.143
272.362
271.057
269.253
266.975
264.242
261.076
257.491
253.514
249.176
244.513
239.559
234.35
228.922
223.326
217.623
211.88
206.177
200.573
195.098
189.814
184.783
180.089
175.84
172.072
168.749
165.814
163.174
160.766
158.604
156.623
154.691
152.796
150.955
149.383
148.537
148.559
149.275
150.494
151.953
153.363
154.565
155.003
153.685
150.237
144.854
137.992
130.436
122.881
115.865
110.326
107.638
108.789
114.31
124.434
139.069
158.044
181.003
207.4
236.385
266.429
295.61
321.757
342.248
354.659
357.083
347.002
322.529
284.682
235.543
177.859
113.189
39.095
-45.588
-136.995
-224.811
-293.467
-331.283
-334.262
-306.704
-260.688
-207.108
-155.194
-113.166
-83.28
-66.879
-62.66
-64.793
-69.389
-72.804
-73.226
-72.395
-71.451
-71.379
-72.428
-73.432
-74.046
-74.516
-75.336
-77.406
-80.935
-85.589
-91.013
-96.741
-102.485
-108.113
-113.457
-118.383
-122.815
-126.745
-130.222
-133.324
-136.089
-138.529
-140.652
-142.468
-144.055
-145.509
-146.93
-148.425
-150.053
-151.838
-153.796
-155.924
-158.205
-160.62
-163.13
-165.689
-168.273
-170.868
-173.465
-176.062
-178.638
-181.164
-183.609
-185.94
-188.13
-190.156
-191.997
-193.636
-195.062
-196.268
-197.252
-198.014
-198.551
-198.854
-198.917
-198.731
-198.287
-197.583
-196.613
-195.37
-193.852
-192.058
-189.991
-187.66
-185.073
-182.232
-179.152
-175.857
-172.363
-168.694
-164.865
-160.868
-156.701
-152.38
-147.884
-143.171
-138.235
-133.066
-127.666
-122.122
-116.51
-110.854
-105.311
-100.176
-95.479
-91.116
-87.166
-83.349
-79.966
-78.365
-78.17
-78.05
-75.934
-67.041
-50.34
-29.535
-9.813
-0.828
-7.935
-27.681
-53.233
-72.327
-75.741
-63.891
-42.051
-20.384
-7.395
-4.765
-10.177
-18.288
-24.828
-28.694
-30.422
-31.597
-33.093
-34.824
-36.632
-38.307
-39.893
-41.62
-43.556
-45.696
-48.039
-50.553
-53.2
-55.937
-58.697
-61.427
-64.108
-66.735
-69.3
-71.786
-74.181
-76.473
-78.655
-80.72
-82.661
-84.468
-86.134
-87.653
-89.025
-90.247
-91.32
-92.245
-93.025
-93.664
-94.167
-94.541
-94.794
-94.934
-94.973
-94.92
-94.787
-94.584
-94.324
-94.019
-93.681
-93.321
-92.952
-92.587
-92.236
-91.912
-91.625
-91.386
-91.203
-91.084
-91.036
-91.065
-91.176
-91.371
-91.654
-92.025
-92.486
-93.035
-93.672
-94.395
-95.198
-96.078
-97.026
-98.037
-99.1
-100.207
-101.347
-102.511
-103.686
-104.864
-106.033
-107.186
-108.31
-109.397
-110.433
-111.409
-112.312
-113.133
-113.86
-114.484
-114.997
-115.394
-115.669
-115.821
-115.846
-115.744
-115.512
-115.15
-114.659
-114.037
-113.285
-112.406
-111.403
-110.282
-109.05
-107.716
-106.289
-104.783
-103.208
-101.576
-99.899
-98.184
-96.439
-94.671
-92.884
-91.084
-89.278
-87.473
-85.678
-83.907
-82.174
-80.494
-78.883
-77.348
-75.894
-74.522
-73.234
-72.025
-70.885
-69.81
-68.796
-67.857
-67.017
-66.293
-65.691
-65.204
-64.81
-64.474
-64.143
-63.755
-63.237
-62.529
-61.589
-60.411
-59.027
-57.473
-55.782
-53.949
-51.935
-49.71
-47.257
-44.575
-41.666
-38.573
-35.413
-32.364
-29.624
-27.36
-25.694
-24.664
-24.256
-24.442
-25.08
-26.045
-27.423
-29.336
-31.684
-34.421
-37.5
-40.472
-43.816
-47.925
-51.28
-53.047
-51.032
-42.877
-31.193
-18.066
-6.398
0.192
4.324
8.093
13.252
23.012
36.25
52.372
71.778
93.364
117.973
146.544
178.211
211.676
243.982
270.931
289.857
298.939
296.362
280.605
250.418
205.818
149.376
85.253
16.751
-53.149
-121.479
-184.987
-239.348
-281.418
-310.521
-327.042
-331.385
-324.278
-306.402
-279.592
-247.751
-214.234
-181.183
-150.819
-125.102
-105.622
-94.153
-91.115
-95.118
-104.843
-119.105
-136.094
-153.886
-170.69
-184.557
-194.42
-200.237
-202.083
-200.221
-195.382
-188.609
-180.877
-173.136
-165.987
-159.545
-153.825
-148.733
-143.991
-139.182
-134.014
-128.301
-121.966
-115.128
-107.92
-100.476
-92.987
-85.619
-78.452
-71.519
-64.804
-58.252
-51.837
-45.548
-39.361
-33.277
-27.311
-21.472
-15.785
-10.27
-4.929
0.241
5.245
10.084
14.756
19.254
23.575
27.714
31.665
35.423
38.982
42.344
45.513
48.495
51.297
53.924
56.382
58.678
60.82
62.814
64.663
66.371
67.939
69.368
70.66
71.814
72.829
73.706
74.443
75.043
75.505
75.831
76.021
76.076
75.997
75.783
75.436
74.953
74.335
73.582
72.693
71.671
70.515
69.228
67.81
66.265
64.593
62.799
60.885
58.855
56.713
54.465
52.116
49.675
47.151
44.553
41.891
39.176
36.421
33.636
30.835
28.03
25.234
22.46
19.721
17.03
14.401
11.848
9.382
7.016
4.764
2.637
0.647
-1.196
-2.882
-4.4
-5.742
-6.9
-7.867
-8.636
-9.204
-9.565
-9.717
-9.659
-9.389
-8.91
-8.224
-7.333
-6.243
-4.96
-3.492
-1.847
-0.035
1.933
4.045
6.288
8.649
11.113
13.666
16.292
18.976
21.701
24.453
27.215
29.972
32.707
35.408
38.057
40.642
43.15
45.567
47.882
50.085
52.167
54.119
55.934
57.607
59.134
60.512
61.739
62.817
63.747
64.533
65.182
65.701
66.1
66.389
66.582
66.693
66.738
66.734
66.698
66.649
66.605
66.588
66.617
66.712
66.895
67.186
67.607
68.176
68.915
69.842
70.976
72.334
73.932
75.786
77.909
80.315
83.015
86.019
89.336
92.972
96.931
101.215
105.823
110.751
115.993
121.54
127.379
133.495
139.871
146.489
153.328
160.367
167.582
174.947
182.436
190.022
197.676
205.368
213.067
220.741
228.358
235.886
243.294
250.551
257.625
264.486
271.101
277.443
283.481
289.188
294.534
299.494
304.042
308.158
311.825
315.028
317.753
319.993
321.746
323.014
323.804
324.122
323.967
323.352
322.302
320.836
318.978
316.74
314.119
311.131
307.831
304.234
300.323
296.095
291.547
286.712
281.699
276.562
271.262
265.905
260.782
256
251.548
247.51
243.654
240.5
239.623
240.707
242.312
242.055
235.438
222.631
208.052
196.121
193.159
199.634
209.579
218.374
221.036
216.679
209.833
203.308
199.021
197.607
197.302
197.397
198.15
199.667
202.347
206.296
211.21
217.039
223.921
231.872
240.814
250.525
260.626
270.825
281.022
290.886
299.755
307.267
313.297
317.765
321.207
323.481
323.114
320.437
316.782
313.872
315.53
321.573
327.598
328.692
317.473
290.01
248.242
196.882
145.527
104.995
82.378
80.474
94.856
115.955
135.758
149.318
156.72
162.072
167.32
172.333
176.131
176.676
173.893
169.513
164.592
160.015
156.561
154.32
153.401
153.894
155.295
156.881
158.307
159.506
160.534
161.58
162.69
163.797
164.956
166.275
167.799
169.486
171.218
172.84
174.257
175.456
176.434
177.192
177.709
177.914
177.742
177.153
176.113
174.598
172.588
170.06
166.997
163.419
159.354
154.827
149.856
144.445
138.59
132.295
125.57
118.43
110.898
102.994
94.745
86.181
77.337
68.249
58.956
49.49
39.882
30.167
20.378
10.553
0.731
-9.054
-18.764
-28.363
-37.815
-47.085
-56.138
-64.943
-73.471
-81.693
-89.582
-97.116
-104.27
-111.023
-117.356
-123.251
-128.692
-133.664
-138.157
-142.159
-145.662
-148.66
-151.151
-153.131
-154.602
-155.567
-156.029
-155.992
-155.465
-154.454
-152.97
-151.021
-148.619
-145.776
-142.505
-138.82
-134.736
-130.268
-125.432
-120.245
-114.724
-108.884
-102.744
-96.321
-89.631
-82.692
-75.519
-68.131
-60.544
-52.774
-44.836
-36.748
-28.524
-20.179
-11.728
-3.187
5.432
14.112
22.84
31.6
40.378
49.159
57.927
66.668
75.367
84.009
92.577
101.059
109.437
117.699
125.828
133.81
141.63
149.274
156.726
163.972
170.998
177.79
184.331
190.609
196.608
202.314
207.713
212.791
217.532
221.925
225.955
229.611
232.881
235.754
238.223
240.279
241.915
243.126
243.91
244.263
244.185
243.677
242.742
241.384
239.608
237.421
234.832
231.852
228.49
224.76
220.675
216.251
211.503
206.449
201.108
195.499
189.645
183.568
177.292
170.842
164.244
157.525
150.71
143.827
136.902
129.962
123.033
116.139
109.305
102.555
95.91
89.393
83.021
76.814
70.787
64.955
59.329
53.92
48.739
43.791
39.085
34.625
30.416
26.461
22.761
19.315
16.122
13.177
10.472
8
5.749
3.706
1.857
0.187
-1.319
-2.679
-3.909
-5.027
-6.053
-7.003
-7.897
-8.754
-9.593
-10.433
-11.291
-12.182
-13.12
-14.118
-15.187
-16.336
-17.575
-18.913
-20.358
-21.918
-23.604
-25.422
-27.379
-29.48
-31.727
-34.121
-36.661
-39.341
-42.154
-45.089
-48.135
-51.281
-54.517
-57.828
-61.207
-64.642
-68.128
-71.664
-75.244
-78.858
-82.493
-86.134
-89.763
-93.363
-96.909
-100.381
-103.76
-107.031
-110.19
-113.236
-116.156
-118.93
-121.521
-123.876
-125.95
-127.712
-129.137
-130.215
-130.964
-131.422
-131.665
-131.804
-131.929
-132.102
-132.342
-132.65
-133.032
-133.512
-134.149
-134.996
-136.087
-137.457
-139.103
-141.012
-143.143
-145.337
-147.299
-148.796
-149.721
-150.127
-150.314
-150.509
-150.804
-151.458
-152.666
-154.194
-155.449
-155.365
-152.553
-146.097
-135.538
-120.403
-100.778
-77.798
-53.393
-30.4
-11.971
-0.653
1.475
-7.525
-27.982
-57.99
-95.196
-137.146
-184.042
-238.201
-298.393
-358.744
-408.264
-435.478
-436.439
-416.046
-385.691
-357.033
-336.407
-324.026
-316.29
-310.342
-305.494
-302.405
-302.436
-305.405
-309.747
-314.234
-317.813
-320.031
-321.178
-321.571
-321.555
-321.709
-322.632
-324.622
-327.75
-331.87
-336.648
-341.788
-347.098
-352.396
-357.536
-362.465
-367.17
-371.666
-375.991
-380.133
-384.048
-387.69
-391.011
-393.977
-396.598
-398.913
-400.981
-402.892
-404.706
-406.45
-408.132
-409.739
-411.241
-412.611
-413.81
-414.8
-415.556
-416.067
-416.328
-416.342
-416.102
-415.594
-414.797
-413.685
-412.238
-410.442
-408.285
-405.761
-402.872
-399.621
-396.021
-392.092
-387.852
-383.316
-378.502
-373.424
-368.101
-362.553
-356.802
-350.867
-344.774
-338.546
-332.213
-325.802
-319.343
-312.866
-306.398
-299.967
-293.599
-287.32
-281.152
-275.117
-269.234
-263.521
-257.993
-252.667
-247.555
-242.667
-238.012
-233.597
-229.424
-225.495
-221.808
-218.357
-215.135
-212.132
-209.337
-206.736
-204.315
-202.057
-199.946
-197.962
-196.087
-194.301
-192.582
-190.91
-189.265
-187.626
-185.974
-184.29
-182.56
-180.766
-178.898
-176.942
-174.892
-172.738
-170.477
-168.105
-165.622
-163.028
-160.329
-157.529
-154.637
-151.662
-148.615
-145.512
-142.366
-139.194
-136.013
-132.843
-129.702
-126.61
-123.588
-120.655
-117.831
-115.134
-112.584
-110.196
-107.987
-105.969
-104.154
-102.552
-101.17
-100.012
-99.079
-98.373
-97.888
-97.618
-97.554
-97.684
-97.994
-98.465
-99.079
-99.814
-100.647
-101.552
-102.502
-103.469
-104.424
-105.338
-106.178
-106.916
-107.518
-107.955
-108.196
-108.21
-107.97
-107.448
-106.619
-105.457
-103.943
-102.056
-99.778
-97.096
-93.996
-90.469
-86.509
-82.112
-77.279
-72.011
-66.315
-60.202
-53.683
-46.775
-39.495
-31.866
-23.91
-15.652
-7.121
1.656
10.646
19.817
29.135
38.565
48.071
57.616
67.163
76.675
86.116
95.45
104.642
113.658
122.463
131.026
139.312
147.291
154.933
162.205
169.081
175.531
181.532
187.061
192.097
196.624
200.624
204.086
206.997
209.35
211.137
212.353
212.995
213.062
212.556
211.48
209.844
207.655
204.926
201.671
197.903
193.638
188.893
183.686
178.033
171.953
165.469
158.603
151.379
143.826
135.973
127.854
119.503
110.96
102.258
93.435
84.528
75.57
66.595
57.631
48.7
39.825
31.029
22.336
13.776
5.379
-2.825
-10.803
-18.52
-25.946
-33.049
-39.808
-46.219
-52.266
-57.93
-63.179
-67.956
-72.211
-75.909
-79.017
-81.519
-83.429
-84.771
-85.616
-86.082
-86.276
-86.314
-86.271
-86.156
-85.993
-85.813
-85.667
-85.673
-85.911
-86.394
-87.157
-88.188
-89.425
-90.833
-92.185
-93.083
-93.318
-92.775
-91.563
-90.116
-88.655
-87.222
-86.064
-85.314
-84.728
-83.821
-81.378
-75.876
-66.711
-53.688
-36.708
-16.246
6.843
30.848
52.508
68.582
77.341
77.416
67.646
47.227
15.069
-27.601
-76.429
-127.738
-179.853
-233.695
-292.014
-353.971
-413.297
-460.476
-486.805
-489.236
-471.699
-443.447
-413.388
-386.731
-364.953
-345.856
-327.802
-311.084
-296.523
-285.882
-280.18
-278.842
-281.035
-285.511
-290.527
-295.251
-299.574
-303.19
-305.975
-307.757
-307.85
-306.216
-303.637
-300.432
-296.721
-292.672
-288.106
-283.108
-278.156
-273.276
-268.13
-262.55
-256.335
-249.416
-241.981
-234.076
-225.664
-216.846
-207.767
-198.584
-189.468
-180.48
-171.605
-162.832
-154.143
-145.534
-137.014
-128.57
-120.194
-111.897
